0.000000 -0.058469227399623964
0.000488 -0.02378722571107598
0.000977 0.027663309118496234
0.001465 0.05164135739732213
0.001953 0.04320938518487254
0.002441 0.02702524615758244
0.002930 0.02317897877637311
0.003418 0.031056372901299503
0.003906 0.03425265091111066
0.004395 0.03144398124204153
0.004883 0.04428276212846584
0.005371 0.0723336795877041
0.005859 0.06887502054723679
0.006348 0.01432361899172838
0.006836 -0.025522518436551817
0.007324 -0.0020215265771007162
0.007812 0.03455081117321991
0.008301 0.03264258549572071
0.008789 0.00880765414270725
0.009277 -0.006959060517629899
0.009766 -0.0021407906819444164
0.010254 0.03399623308569671
0.010742 0.08969257004770465
0.011230 0.11266879984584346
0.011719 0.07136764033847012
0.012207 0.0006082469347028704
0.012695 -0.05101522084689271
0.013184 -0.06580396984751152
0.013672 -0.0525298749784077
0.014160 -0.027794499633824302
0.014648 0.018456120224562587
0.015137 0.08814213668473654
0.015625 0.12668233216497823
0.016113 0.10488681700479204
0.016602 0.061856327977185044
0.017090 0.013375469358220964
0.017578 -0.05881509330367069
0.018066 -0.12619931254036124
0.018555 -0.13569273528591977
0.019043 -0.09590622991006142
0.019531 -0.057407776866515034
0.020020 -0.03892184061574152
0.020508 -0.030382530708932595
0.020996 -0.03079399187064336
0.021484 -0.03643518402975037
0.021973 -0.02449088392965381
0.022461 0.0027013319747098067
0.022949 0.008700316448347921
0.023438 -0.00694713410714553
0.023926 -0.0034049901932876373
0.024414 0.029177963250011225
0.024902 0.06297144735747365
0.025391 0.0822743427264265
0.025879 0.07198185047841518
0.026367 0.004645336883662118
0.026855 -0.08581052343504221
0.027344 -0.11299677613416365
0.027832 -0.07234560599818847
0.028320 -0.033596698334470314
0.028809 -0.015426811961532606
0.029297 -0.003017381852545612
0.029785 -0.008563162727777665
0.030273 -0.0274784497559885
0.030762 -0.03596409081561776
0.031250 -0.03456273758370428
0.031738 -0.02706102538903555
0.032227 -0.009242968125386756
0.032715 0.013470880642095924
0.033203 0.03436595181071218
0.033691 0.044640554442996944
0.034180 0.030024738394401496
0.034668 -0.002623810306561402
0.035156 -0.021187268225483318
0.035645 -0.013530512694517775
0.036133 -0.012296129209385479
0.036621 -0.055076163616820696
0.037109 -0.12325348915072185
0.037598 -0.14983149491514042
0.038086 -0.10835740245574371
0.038574 -0.04553503522932469
0.039062 -0.014275913349790899
0.039551 -0.025331695868801896
0.040039 -0.04493871470510619
0.040527 -0.021825331186397116
0.041016 0.05243446369453274
0.041504 0.12488740738708054
0.041992 0.13817342866666874
0.042480 0.09263839343734404
0.042969 0.04067502295694391
0.043457 0.021622582208162825
0.043945 0.023876673789708758
0.044434 0.014508478354236114
0.044922 -0.011485133296448317
0.045410 -0.033531103076806276
0.045898 -0.04408001315023155
0.046387 -0.04064520693073299
0.046875 -0.013542439105002144
0.047363 0.017716682774531648
0.047852 0.013649776799361473
0.048340 -0.02856375311006617
0.048828 -0.06809384066051057
0.049316 -0.0577774955915305
0.049805 0.004567815215513713
0.050293 0.07242909087157906
0.050781 0.11287154882407775
0.051270 0.11847696175173165
0.051758 0.08620409498102642
0.052246 0.04371029442521608
0.052734 0.025838568314387623
0.053223 0.01425206052882216
0.053711 -0.013053456275142974
0.054199 -0.025910126777293842
0.054688 -0.013625923978392735
0.055176 -0.025886273956325104
0.055664 -0.08344909415913694
0.056152 -0.12742773282025135
0.056641 -0.10046808192033295
0.057129 -0.019338674600405968
0.057617 0.06094395757513074
0.058105 0.10772530270007209
0.058594 0.11441005577656149
0.059082 0.07977575972995099
0.059570 0.011025966492800073
0.060059 -0.056662376211241906
0.060547 -0.07415245718657053
0.061035 -0.03695994609106266
0.061523 0.008897102221340027
0.062012 0.03691820365436736
0.062500 0.056060092481781225
0.062988 0.06595901318380833
0.063477 0.05459314399220371
0.063965 0.02675093871644193
0.064453 0.002874264926733172
0.064941 -0.0012701627165854058
0.065430 0.013297947690072559
0.065918 0.024699596113130287
0.066406 0.007907210151137316
0.066895 -0.041020888860990645
0.067383 -0.10533405739795591
0.067871 -0.1529383248463188
0.068359 -0.15578277374684105
0.068848 -0.11828017597873955
0.069336 -0.06315630671998138
0.069824 -0.0063090711462317345
0.070312 0.034431547068376214
0.070801 0.03544529195954767
0.071289 -0.0018187775988664262
0.071777 -0.032845334473955004
0.072266 -0.02193863208599863
0.072754 0.010274602632284762
0.073242 0.025367475100255006
0.073730 0.018086401499547117
0.074219 0.015468554398227901
0.074707 0.03899936228388993
0.075195 0.0748740050208749
0.075684 0.09171409662480536
0.076172 0.07749185212219413
0.076660 0.049250112095205946
0.077148 0.03271414395862693
0.077637 0.037079210195906355
0.078125 0.04809325027822206
0.078613 0.05018037211298681
0.079102 0.05177254791265021
0.079590 0.06734247679999525
0.080078 0.08438531738215999
0.080566 0.07683589954555378
0.081055 0.04952441953634646
0.081543 0.03508153643977438
0.082031 0.034574663994188654
0.082520 0.01757952905396139
0.083008 -0.011359905986362433
0.083496 -0.01564745055549345
0.083984 0.003953605075568658
0.084473 0.005378811128450874
0.084961 -0.023399617370333956
0.085449 -0.04394882263490348
0.085938 -0.029309153765339296
0.086426 -0.0047526745780214485
0.086914 -0.00775813002008269
0.087402 -0.0306985805867684
0.087891 -0.03536777029139926
0.088379 -0.01484838105304066
0.088867 0.0005724677032497604
0.089355 -0.0036494816082172227
0.089844 -0.011282384318214028
0.090332 -0.014007569113892575
0.090820 -0.018527678687468806
0.091309 -0.018110254320515856
0.091797 -0.005593486517169534
0.092285 0.006189807041388034
0.092773 0.012475025366651028
0.093262 0.02502757240145046
0.093750 0.0378961693140857
0.094238 0.0305793164819247
0.094727 0.003059124289240907
0.095215 -0.022982193003381005
0.095703 -0.030483905198049742
0.096191 -0.03026922980933108
0.096680 -0.04588090113337142
0.097168 -0.074361169370047
0.097656 -0.09538743105399132
0.098145 -0.09192280880828184
0.098633 -0.04567815215513713
0.099121 0.030907292770244874
0.099609 0.07989502383479469
0.100098 0.0706639821198923
0.100586 0.04544558715069191
0.101074 0.04534421266157477
0.101562 0.04355525108891927
0.102051 0.017060730197891297
0.102539 0.009028292736668097
0.103027 0.041241527454951486
0.103516 0.06325171800385634
0.104004 0.03959568280810843
0.104492 -0.0021050114504913065
0.104980 -0.024168870846575822
0.105469 -0.018527678687468806
0.105957 0.004460477521154383
0.106445 0.018581347534648473
0.106934 -0.011920447279127822
0.107422 -0.08516053406364404
0.107910 -0.15156678764061624
0.108398 -0.17336230280080245
0.108887 -0.1572377958259342
0.109375 -0.12864422668965708
0.109863 -0.10076027897720001
0.110352 -0.06585763869469119
0.110840 -0.012194754720268333
0.111328 0.04620291421644941
0.111816 0.07143323559613417
0.112305 0.051832179965072056
0.112793 0.026279845502309312
0.113281 0.031217379442838495
0.113770 0.04987028544039319
0.114258 0.0406809861621861
0.114746 -0.0024210613283271116
0.115234 -0.04112226335010779
0.115723 -0.045075868425676444
0.116211 -0.03621454543578953
0.116699 -0.0459703492120042
0.117188 -0.05330509165989175
0.117676 -0.0385700115064526
0.118164 -0.033435691792931314
0.118652 -0.05162346778159558
0.119141 -0.06197559208202875
0.119629 -0.04210619221506831
0.120117 -0.001663734262569616
0.120605 0.026703233074504448
0.121094 0.017191920713219365
0.121582 -0.012850707296908685
0.122070 -0.01705476699264911
0.122559 0.019821694225022952
0.123047 0.0605623124396309
0.123535 0.07056260763077515
0.124023 0.05692475724189805
0.124512 0.04177821592674814
0.125000 0.04181399515820125
0.125488 0.06411041955873098
0.125977 0.09259068779540655
0.126465 0.09719428224237338
0.126953 0.07087865750861096
0.127441 0.044706149700660974
0.127930 0.03944063947181162
0.128418 0.021825331186397116
0.128906 -0.03062702212386218
0.129395 -0.06930437132467411
0.129883 -0.055594962472890794
0.130371 -0.02221293952713914
0.130859 0.001592175799663396
0.131348 0.028569716315308354
0.131836 0.05564863132007046
0.132324 0.05736603442981974
0.132812 0.0295059395383314
0.133301 -0.00880765414270725
0.133789 -0.031652693425518
0.134277 -0.03532006464946178
0.134766 -0.0499835863399947
0.135254 -0.07804643020971733
0.135742 -0.07204744573607921
0.136230 -0.015510296834923196
0.136719 0.04245802132435723
0.137207 0.053871596157899326
0.137695 0.02328631647073244
0.138184 -0.013995642703408204
0.138672 -0.03516502131316497
0.139160 -0.036584264160805
0.139648 -0.02744267052453539
0.140137 -0.02894539824556601
0.140625 -0.03947045549802254
0.141113 -0.023709704042927576
0.141602 0.027877984507214893
0.142090 0.0719401080417199
0.142578 0.07030022660011902
0.143066 0.04626850947411345
0.143555 0.0474015184701286
0.144043 0.0716180949586419
0.144531 0.07711617019193648
0.145020 0.049923954287572854
0.145508 0.016458446468430612
0.145996 -0.0006320997556716105
0.146484 -0.0006022837294606854
0.146973 0.011210825855307808
0.147461 0.03257102703281449
0.147949 0.051879885607009533
0.148438 0.042827740049372696
0.148926 0.006809980386575275
0.149414 -0.017018987761196
0.149902 -0.029046772734683153
0.150391 -0.08105784885702076
0.150879 -0.16844265847599982
0.151367 -0.19570643284326963
0.151855 -0.11274035830874969
0.152344 -0.0023375764549365217
0.152832 0.05200511291709542
0.153320 0.06769430590928417
0.153809 0.07191029201550897
0.154297 0.05342435576473545
0.154785 0.018748317281429654
0.155273 -0.0060168740893646695
0.155762 -0.005265510228849359
0.156250 0.020775807063772554
0.156738 0.04314975313245069
0.157227 0.02410923879415397
0.157715 -0.026583968969660747
0.158203 -0.06136138194208369
0.158691 -0.057932538927827314
0.159180 -0.03659619057128937
0.159668 -0.024735375344583397
0.160156 -0.025397291126465934
0.160645 -0.028748612472573903
0.161133 -0.03417512924296226
0.161621 -0.039118626388733625
0.162109 -0.030418309940385704
0.162598 -0.0074361169370047
0.163086 0.011061745724253183
0.163574 0.018438230608836034
0.164062 0.029261448123401815
0.164551 0.046226767037418154
0.165039 0.05072302379002564
0.165527 0.0349145666929932
0.166016 0.020042332818983797
0.166504 0.030972888027908912
0.166992 0.059840764605326516
0.167480 0.0750350115624139
0.167969 0.06251228055382539
0.168457 0.038218182397163694
0.168945 0.030382530708932595
0.169434 0.04475981854784064
0.169922 0.051665210218290875
0.170410 0.03718654789026569
0.170898 0.023489065448966732
0.171387 0.023029898645318486
0.171875 0.033065973067915845
0.172363 0.051438608419087845
0.172852 0.062476501322372285
0.173340 0.04920240645326847
0.173828 0.015820383507516817
0.174316 -0.0224276149158578
0.174805 -0.05301885780826687
0.175293 -0.07270339831271957
0.175781 -0.07689553159797563
0.176270 -0.06102744244852133
0.176758 -0.0509794416154396
0.177246 -0.06873190362142435
0.177734 -0.08174361745987203
0.178223 -0.055827527477336006
0.178711 -0.012361724467049513
0.179199 0.009368195435472642
0.179688 0.0036435184029750376
0.180176 -0.014401140659876785
0.180664 -0.03059124289240907
0.181152 -0.026959650899918402
0.181641 -0.0035182910928891523
0.182129 0.01357225513121307
0.182617 0.014508478354236114
0.183105 0.011431464449268652
0.183594 0.007931062972106055
0.184082 0.005253583818364989
0.184570 0.012296129209385479
0.185059 0.02622617665512965
0.185547 0.03233846202836928
0.186035 0.02827751925844129
0.186523 0.023900526610677496
0.187012 0.01995884794559321
0.187500 0.00652970974019258
0.187988 -0.01802676944712527
0.188477 -0.044038270713536255
0.188965 -0.05812336149557724
0.189453 -0.04347772942077086
0.189941 -0.0039297522545999174
0.190430 0.018086401499547117
0.190918 -0.010387903531886277
0.191406 -0.064659034441012
0.191895 -0.09322875075632035
0.192383 -0.08006199358157587
0.192871 -0.050758803021478754
0.193359 -0.02044783077545238
0.193848 0.026583968969660747
0.194336 0.08601923561851868
0.194824 0.11188761995911722
0.195312 0.08030648499650545
0.195801 0.03127701149526035
0.196289 0.012952081786025828
0.196777 0.017716682774531648
0.197266 0.003238020446506457
0.197754 -0.04873727644437804
0.198242 -0.10796979411500168
0.198730 -0.12770800346663405
0.199219 -0.10628220703146332
0.199707 -0.08013355204448208
0.200195 -0.052249604332025
0.200684 0.0017352927254758361
0.201172 0.06741403526290148
0.201660 0.1038313296769253
0.202148 0.09706309172704532
0.202637 0.06690119961207357
0.203125 0.04286948248606799
0.203613 0.03448521591555588
0.204102 0.02675093871644193
0.204590 0.005510001643778944
0.205078 -0.028080733485449184
0.205566 -0.05799217098024916
0.206055 -0.06617368857252699
0.206543 -0.05572018978297668
0.207031 -0.04654878012049614
0.207520 -0.04808132386773769
0.208008 -0.05012074006056496
0.208496 -0.036095281330945826
0.208984 -0.006034763705091224
0.209473 0.02072213821659289
0.209961 0.0365067424926566
0.210449 0.042893335307036734
0.210938 0.02217716029568603
0.211426 -0.021073967325881803
0.211914 -0.034729707330485464
0.212402 -0.004788453809474558
0.212891 0.019535460373398074
0.213379 0.02236798286343595
0.213867 0.0290288831189566
0.214355 0.024812897012731802
0.214844 -0.014198391681642495
0.215332 -0.04467633367445005
0.215820 -0.024806933807489617
0.216309 -0.001663734262569616
0.216797 -0.023876673789708758
0.217285 -0.05429498373009446
0.217773 -0.045183206120035777
0.218262 -0.010399829942370648
0.218750 0.00918929927820709
0.219238 -0.0009183336072964907
0.219727 -0.019917105508897914
0.220215 -0.02215330747471729
0.220703 -0.001973820935163236
0.221191 0.028062843869722628
0.221680 0.04576163702852772
0.222168 0.04041860513152996
0.222656 0.029905474289557796
0.223145 0.03447925271031369
0.223633 0.044348357386129876
0.224121 0.04142042361221704
0.224609 0.03152746611543212
0.225098 0.02280926005135764
0.225586 0.00893884465803532
0.226074 -0.005915499600247524
0.226562 -0.0056471553643491984
0.227051 0.01617221261680573
0.227539 0.045612556897473094
0.228027 0.05289959370342317
0.228516 0.035182910928891524
0.229004 0.03159902457833834
0.229492 0.05480781938092237
0.229980 0.07207726176229014
0.230469 0.06866630836376032
0.230957 0.05995406550492803
0.231445 0.05337665012279797
0.231934 0.039124589593975814
0.232422 0.016577710573274312
0.232910 0.00796087899831698
0.233398 0.025045462017177018
0.233887 0.04020989294805348
0.234375 0.024860602654669283
0.234863 0.0041563540538029475
0.235352 0.019392343447585635
0.235840 0.05272069754615762
0.236328 0.0575389673818431
0.236816 0.03214167625537717
0.237305 0.00722144154828604
0.237793 -0.007501712194668735
0.238281 -0.026774791537410667
0.238770 -0.049852395824666634
0.239258 -0.052189972279603154
0.239746 -0.04083602949848291
0.240234 -0.053466098201430744
0.240723 -0.06880346208433058
0.241211 -0.03454484796797773
0.241699 0.016685048267633642
0.242188 0.017120362250313145
0.242676 -0.016154323001079177
0.243164 -0.022338166837225025
0.243652 -0.0019857473456476064
0.244141 0.006255402299052069
0.244629 0.004049016359443618
0.245117 0.007215478343043855
0.245605 -0.0027251847956785468
0.246094 -0.03108022572226824
0.246582 -0.03916036882542892
0.247070 -0.005981094857911559
0.247559 0.03392467462279049
0.248047 0.036626006597500295
0.248535 0.007525565015637475
0.249023 0.0008944807863277506
0.249512 0.040633280520248616
0.250000 0.05887472535609255
0.250488 -0.005521928054263314
0.250977 -0.08904258067630648
0.251465 -0.10259694619179299
0.251953 -0.07096214238200155
0.252441 -0.06933418735088505
0.252930 -0.0973851048101233
0.253418 -0.09688419556977976
0.253906 -0.05471240809704741
0.254395 -0.012445209340440104
0.254883 0.006088432552270889
0.255371 0.007275110395465705
0.255859 -0.00699483974908301
0.256348 -0.03142609162631497
0.256836 -0.03952412434520221
0.257324 -0.011658066248471682
0.257812 0.035713636195445986
0.258301 0.07378870166679724
0.258789 0.09437964936806206
0.259277 0.0968722691592954
0.259766 0.08186884476995793
0.260254 0.06099762642231041
0.260742 0.027579824245105643
0.261230 -0.031014630464604207
0.261719 -0.07840422252424843
0.262207 -0.07252450215545402
0.262695 -0.04416946122886432
0.263184 -0.05641192159107014
0.263672 -0.10560240163385423
0.264160 -0.1270520508899937
0.264648 -0.08799305655368192
0.265137 -0.01494379233691562
0.265625 0.05084825110011153
0.266113 0.08055693961667722
0.266602 0.06548791996967572
0.267090 0.02446703110868507
0.267578 0.001449058873850956
0.268066 0.02797935899633204
0.268555 0.07198185047841518
0.269043 0.07329971883693807
0.269531 0.028355040926589695
0.270020 -0.01893317664393739
0.270508 -0.041700694258599735
0.270996 -0.04650107447855866
0.271484 -0.04694235166648035
0.271973 -0.03834937291249176
0.272461 -0.010071853654050472
0.272949 0.030215560962151417
0.273438 0.06458747597810578
0.273926 0.07410475154463304
0.274414 0.05029367301258832
0.274902 0.01864097958707032
0.275391 0.005837977932099119
0.275879 -0.00699483974908301
0.276367 -0.043501582241739604
0.276855 -0.08474310969669109
0.277344 -0.0940814891059528
0.277832 -0.05253583818364989
0.278320 0.015116725288938985
0.278809 0.04679327153542573
0.279297 0.011950263305338748
0.279785 -0.04973909492506512
0.280273 -0.07207726176229014
0.280762 -0.02995914313673746
0.281250 0.025623892925668964
0.281738 0.024198686872786746
0.282227 -0.020644616548444485
0.282715 -0.033065973067915845
0.283203 -0.0008587015548746406
0.283691 0.015671303376462192
0.284180 -0.007853541303957651
0.284668 -0.039124589593975814
0.285156 -0.060741208596896454
0.285645 -0.07680608351934286
0.286133 -0.06061598128681057
0.286621 0.025188578942989457
0.287109 0.1408926502571051
0.287598 0.18640383266546104
0.288086 0.1334207540886473
0.288574 0.0567458610846325
0.289062 0.024884455475638022
0.289551 0.025856457930114176
0.290039 0.01299978742796331
0.290527 -0.018694648434249988
0.291016 -0.041760326311021584
0.291504 -0.04588090113337142
0.291992 -0.03989980627545986
0.292480 -0.029965106341979644
0.292969 -0.010703953409722083
0.293457 0.018927213438695203
0.293945 0.04484330342123123
0.294434 0.05744951930321033
0.294922 0.05820684636896782
0.295410 0.0423506836299979
0.295898 -0.001431169258124401
0.296387 -0.06331731326152037
0.296875 -0.10941885298885264
0.297363 -0.1199319838308248
0.297852 -0.10297859132729284
0.298340 -0.08216104182682499
0.298828 -0.07280477280183671
0.299316 -0.05225556753726719
0.299805 -0.0008587015548746406
0.300293 0.04641162639992589
0.300781 0.05331105486513393
0.301270 0.033745778465524935
0.301758 0.01633918236358691
0.302246 0.009976442370175512
0.302734 0.011139267392401588
0.303223 0.011544765348870167
0.303711 0.0004233875721951353
0.304199 -0.019517570757671517
0.304688 -0.03196278009811162
0.305176 -0.031944890482385066
0.305664 -0.027078915004762102
0.306152 -0.015748825044610594
0.306641 0.003327468525139232
0.307129 0.012564473445283804
0.307617 0.008014547845496645
0.308105 0.017674940337836353
0.308594 0.05010881365008059
0.309082 0.07640654876811645
0.309570 0.08159453732881741
0.310059 0.07721754468105362
0.310547 0.0722144154828604
0.311035 0.07613820453221813
0.311523 0.09077787340178231
0.312012 0.08900680144485337
0.312500 0.06094395757513074
0.312988 0.04186170080013873
0.313477 0.04386533776151289
0.313965 0.030829771102096473
0.314453 -0.01531351106193109
0.314941 -0.06816539912341678
0.315430 -0.0932526035772891
0.315918 -0.07680608351934286
0.316406 -0.03242791010700205
0.316895 0.011181009829096882
0.317383 0.03327468525139232
0.317871 0.031241232263807237
0.318359 0.01602909569099329
0.318848 0.0017472191359602061
0.319336 -0.008443898622933965
0.319824 -0.023942269047372792
0.320312 -0.040561722057342396
0.320801 -0.030943072001697988
0.321289 0.007978768614043535
0.321777 0.0283132984898944
0.322266 -0.0023554660706630766
0.322754 -0.04877901888107333
0.323242 -0.06511223803941805
0.323730 -0.052559691004618624
0.324219 -0.0377351627725467
0.324707 -0.034515031941766805
0.325195 -0.03399623308569671
0.325684 -0.023781262505833796
0.326172 -0.01508690926272806
0.326660 -0.029535755564542326
0.327148 -0.05330509165989175
0.327637 -0.04149198207512326
0.328125 0.013876378598564505
0.328613 0.06297144735747365
0.329102 0.06219026747074741
0.329590 0.026458741659574864
0.330078 0.004502219957849678
0.330566 0.018396488172140738
0.331055 0.04747307693303482
0.331543 0.0673186239790265
0.332031 0.07945970985211517
0.332520 0.09440946539427299
0.333008 0.10671752101414284
0.333496 0.09263839343734404
0.333984 0.03913651600446018
0.334473 -0.008813617347949436
0.334961 0.009898920702027107
0.335449 0.07032407942108775
0.335938 0.09393240897489818
0.336426 0.06592323395235522
0.336914 0.03538565990712581
0.337402 0.015069019647001506
0.337891 -0.03532006464946178
0.338379 -0.10320519312649587
0.338867 -0.11521508848425646
0.339355 -0.07019288890575968
0.339844 -0.04254150619774782
0.340332 -0.04406808673974718
0.340820 -0.012785112039244649
0.341309 0.05787887008064765
0.341797 0.0851784236793706
0.342285 0.024282171746177337
0.342773 -0.05313812191311057
0.343262 -0.06908969593595546
0.343750 -0.04446165828573139
0.344238 -0.03266047511144727
0.344727 -0.04142638681745922
0.345215 -0.051223933030369186
0.345703 -0.043280943647778757
0.346191 -0.015623597734524711
0.346680 0.010316345068980057
0.347168 0.016911650066836672
0.347656 0.008026474255981015
0.348145 -0.009266820946355496
0.348633 -0.03544529195954767
0.349121 -0.06130174988966184
0.349609 -0.06744981449435458
0.350098 -0.054909193870039515
0.350586 -0.04027548820571752
0.351074 -0.0238587841739822
0.351562 -0.004776527398990188
0.352051 -0.00775813002008269
0.352539 -0.04823040399879231
0.353027 -0.08684215794194021
0.353516 -0.07399741385027371
0.354004 -0.023578513527599505
0.354492 0.009314526588292977
0.354980 0.0061778806309036646
0.355469 0.004478367136880938
0.355957 0.03471181771475891
0.356445 0.07151075726428256
0.356934 0.07990695024527905
0.357422 0.06882135170005713
0.357910 0.06140908758402117
0.358398 0.05078861904768968
0.358887 0.012433282929955733
0.359375 -0.057711900333866466
0.359863 -0.12480988571893213
0.360352 -0.1367124433823334
0.360840 -0.07773038033188152
0.361328 0.009946626343964586
0.361816 0.07174928547396997
0.362305 0.08629950626490138
0.362793 0.07064609250416574
0.363281 0.061796695924763195
0.363770 0.07250064933448527
0.364258 0.07676434108264756
0.364746 0.05881509330367069
0.365234 0.03370403602882964
0.365723 0.018056585473336193
0.366211 0.016124506974868252
0.366699 0.018110254320515856
0.367188 0.009594797234675672
0.367676 0.0013715372057025508
0.368164 0.021479465282350386
0.368652 0.06421775725309031
0.369141 0.08745040487664309
0.369629 0.06383611211759047
0.370117 0.010244786606073837
0.370605 -0.025886273956325104
0.371094 -0.014627742459079815
0.371582 0.0272399215463011
0.372070 0.06268521350584877
0.372559 0.06435491097366057
0.373047 0.031563245346885226
0.373535 -0.017919431752765936
0.374023 -0.08344909415913694
0.374512 -0.16137626026401058
0.375000 -0.20438289647064883
0.375488 -0.17752462005984757
0.375977 -0.1150421555322331
0.376465 -0.06214256182880993
0.376953 -0.02384685776349783
0.377441 0.002713258385194177
0.377930 0.012898412938846164
0.378418 0.011306237139182768
0.378906 0.00022063859396084516
0.379395 -0.02297622979813882
0.379883 -0.04295893056470077
0.380371 -0.042010780931193356
0.380859 -0.02797935899633204
0.381348 -0.016506152110368093
0.381836 -0.012934192170299274
0.382324 -0.01396582667719728
0.382812 -0.010316345068980057
0.383301 -0.006541636150676949
0.383789 -0.01735292725475836
0.384277 -0.030179781730698307
0.384766 -0.020650579753686667
0.385254 0.002707295179951992
0.385742 0.015563965682102861
0.386230 0.02191477926502989
0.386719 0.04418735084459088
0.387207 0.07575655939671828
0.387695 0.08551236317293295
0.388184 0.06676404589150331
0.388672 0.041301159507373335
0.389160 0.028617421957245835
0.389648 0.031324717137197824
0.390137 0.033065973067915845
0.390625 0.009684245313308446
0.391113 -0.03732966481607813
0.391602 -0.061874217592911604
0.392090 -0.030483905198049742
0.392578 0.018366672145929814
0.393066 0.03266047511144727
0.393555 0.017144215071281887
0.394043 0.0017949247778976862
0.394531 -0.0021706067081553415
0.395020 -0.001514654131514991
0.395508 -0.010411756352855017
0.395996 -0.031098115337994794
0.396484 -0.04423505648652836
0.396973 -0.03902321510485866
0.397461 -0.03309578909412677
0.397949 -0.042595175044927484
0.398438 -0.050007439160963445
0.398926 -0.028951361450808195
0.399414 0.002546288638412997
0.399902 0.0019082256774992012
0.400391 -0.017311184818063065
0.400879 0.0009302600177808606
0.401367 0.04965561005167453
0.401855 0.06323979159337197
0.402344 0.027198179109605803
0.402832 -0.00762693950475462
0.403320 -0.0036375551977328524
0.403809 0.027084878210004288
0.404297 0.04567815215513713
0.404785 0.03388293218609519
0.405273 0.01874235407618747
0.405762 0.028253666437472548
0.406250 0.04874920285486241
0.406738 0.05608990850799215
0.407227 0.05199318650661105
0.407715 0.04458688559581728
0.408203 0.02849219464715995
0.408691 0.005754493058708529
0.409180 -0.007465932963215625
0.409668 -0.007418227321278145
0.410156 -0.005283399844575914
0.410645 -0.005820088316372564
0.411133 -0.00756730745233277
0.411621 -0.007430153731762515
0.412109 0.010155338527441061
0.412598 0.05390737538935244
0.413086 0.09536357823302258
0.413574 0.09871489957913056
0.414062 0.06614983575155825
0.414551 0.027049098978551178
0.415039 0.004555888805029343
0.415527 0.0024508773545380367
0.416016 0.009982405575417698
0.416504 0.015379106319595125
0.416992 0.01416857565543157
0.417480 0.002617847101319217
0.417969 -0.024860602654669283
0.418457 -0.05874949804600666
0.418945 -0.07586986029631981
0.419434 -0.0707415037880407
0.419922 -0.05926829690207675
0.420410 -0.05204089214854853
0.420898 -0.04921433286375284
0.421387 -0.04763408347457381
0.421875 -0.04014429769038945
0.422363 -0.02223679234810788
0.422852 -0.0005307252665544654
0.423340 0.00818748079752001
0.423828 -0.009499385950800712
0.424316 -0.04460477521154383
0.424805 -0.07275706715989923
0.425293 -0.07672856185119445
0.425781 -0.049846432619424445
0.426270 -0.0023912453021161864
0.426758 0.03744296571567964
0.427246 0.05231519958968904
0.427734 0.04481945060026249
0.428223 0.022886781719506047
0.428711 0.0007871430919684205
0.429199 -0.007966842203559166
0.429688 -0.007096214238200155
0.430176 -0.006732458718426869
0.430664 -0.011932373689612193
0.431152 -0.02918392645525341
0.431641 -0.054145903599039834
0.432129 -0.06452784392568393
0.432617 -0.048331778487909455
0.433105 -0.0176153082854145
0.433594 0.010531020457698718
0.434082 0.026691306664020076
0.434570 0.03079399187064336
0.435059 0.03153939252591648
0.435547 0.03158113496261178
0.436035 0.020501499622632043
0.436523 0.00038164513549984025
0.437012 -0.0021765699133975266
0.437500 0.028074770280207
0.437988 0.07106948007636088
0.438477 0.09665759377057673
0.438965 0.09217326342845361
0.439453 0.06858282349036973
0.439941 0.05420553565146169
0.440430 0.06439665341035586
0.440918 0.07057453404125952
0.441406 0.03845671060685109
0.441895 -0.004830196246169853
0.442383 -0.004078832385654543
0.442871 0.02765734591325405
0.443359 0.023715667248169762
0.443848 -0.016905686861594486
0.444336 -0.01969646691493707
0.444824 0.0333223908933298
0.445312 0.0725364285659384
0.445801 0.05486148822810204
0.446289 0.006237512683325514
0.446777 -0.034813192203876055
0.447266 -0.04784875886329247
0.447754 -0.03004262801012805
0.448242 -0.005217804586911879
0.448730 -0.01338143256346315
0.449219 -0.052428500489290555
0.449707 -0.07476070412127339
0.450195 -0.07660333454110856
0.450684 -0.0914218995679383
0.451172 -0.09842866572750568
0.451660 -0.06251824375906759
0.452148 -0.017692829953562906
0.452637 -0.009248931330628941
0.453125 -0.019481791526218407
0.453613 -0.01406123796107224
0.454102 0.0038880098179046225
0.454590 0.018354745735445443
0.455078 0.027037172568066807
0.455566 0.03282148165298626
0.456055 0.03946449229278036
0.456543 0.04603594446966823
0.457031 0.033209089993728284
0.457520 -0.013655740004603659
0.458008 -0.07116489136023584
0.458496 -0.09789794046095121
0.458984 -0.07844596496094373
0.459473 -0.0393273385722101
0.459961 -0.019261152932257563
0.460449 -0.02274962799893579
0.460938 -0.025796825877692327
0.461426 -0.016798349167235157
0.461914 -0.0009302600177808606
0.462402 0.012981897812236754
0.462891 0.014937829131673436
0.463379 0.0019261152932257563
0.463867 -0.019201520879835714
0.464355 -0.028551826699581798
0.464844 -0.0007752166814840505
0.465332 0.05178447432313457
0.465820 0.08092665834169269
0.466309 0.0699483974908301
0.466797 0.048331778487909455
0.467285 0.03999521755933482
0.467773 0.03649481608217223
0.468262 0.01688779724586793
0.468750 -0.022242755553350067
0.469238 -0.05910729036053776
0.469727 -0.073007521780071
0.470215 -0.06977546453880673
0.470703 -0.06001966076259207
0.471191 -0.03419301885868881
0.471680 0.009588834029433486
0.472168 0.05183814317031424
0.472656 0.0705864604517439
0.473145 0.03852826906975731
0.473633 -0.03790809572457007
0.474121 -0.07914962317952155
0.474609 -0.036637933007984666
0.475098 0.025945906008746952
0.475586 0.03805121265038251
0.476074 0.012063564204940263
0.476562 -0.00819940720800438
0.477051 -0.010328271479464426
0.477539 -0.003905899433631178
0.478027 0.008885175810855656
0.478516 0.029166036839526854
0.479004 0.04198096490498243
0.479492 0.025659672157122074
0.479980 -0.010417719558097203
0.480469 -0.03091325597548706
0.480957 -0.026709196279746633
0.481445 -0.015510296834923196
0.481934 -0.004400845468732533
0.482422 0.003947641870326472
0.482910 -0.0007692534762418655
0.483398 -0.019726282941147994
0.483887 -0.043203421979630355
0.484375 -0.061641652588466385
0.484863 -0.057562820202811844
0.485352 -0.01466948489577511
0.485840 0.04263691748162278
0.486328 0.06468288726198074
0.486816 0.045702004976105874
0.487305 0.031342606752924385
0.487793 0.04586301151764487
0.488281 0.054169756420008576
0.488770 0.027943579764878927
0.489258 -0.0009958552754448958
0.489746 0.006845759618028384
0.490234 0.04029337782144407
0.490723 0.056650449800757535
0.491211 0.04149794528036544
0.491699 0.023697777632443205
0.492188 0.025111057274841052
0.492676 0.0332448692251814
0.493164 0.025492702410340892
0.493652 -0.011568618169838908
0.494141 -0.06573837458984748
0.494629 -0.08988935582069675
0.495117 -0.05858849150446766
0.495605 -0.015844236328485556
0.496094 -0.0047049689360839685
0.496582 -0.010882849566987632
0.497070 -0.020394161928272713
0.497559 -0.038892024589530595
0.498047 -0.04574374741280116
0.498535 -0.013924084240501984
0.499023 0.04134290194406863
0.499512 0.08055693961667722
0.500000 0.07802854059399078
0.500488 0.03242194690175987
0.500977 -0.020018479998015058
0.501465 -0.03447328950507151
0.501953 -0.021407906819444166
0.502441 -0.004412771879216903
0.502930 0.041992891315466796
0.503418 0.1174691800658024
0.503906 0.15179338943981927
0.504395 0.10536387342416684
0.504883 0.024186760462302375
0.505371 -0.027877984507214893
0.505859 -0.03234442523361146
0.506348 -0.02189092644406115
0.506836 -0.03528428541800867
0.507324 -0.059590309985154744
0.507812 -0.054545438350266234
0.508301 -0.02222486593762351
0.508789 0.0002981602621092502
0.509277 -0.0009898920702027106
0.509766 -0.012612179087221283
0.510254 -0.029213742481464335
0.510742 -0.048134992714917356
0.511230 -0.05387755936314151
0.511719 -0.04519513253052015
0.512207 -0.03870120202178068
0.512695 -0.03251139498039264
0.513184 -0.01506305644175932
0.513672 0.0009183336072964907
0.514160 -0.0004889828298591703
0.514648 -0.013280058074346004
0.515137 -0.02839678336328499
0.515625 -0.041384644380763926
0.516113 -0.046590522557191434
0.516602 -0.03983421101779583
0.517090 -0.018694648434249988
0.517578 0.011264494702487473
0.518066 0.03599390684182868
0.518555 0.047359776033433304
0.519043 0.040704838983154835
0.519531 0.011407611628299912
0.520020 -0.02535554868977064
0.520508 -0.04681116115115228
0.520996 -0.05072898699526783
0.521484 -0.043060305053817916
0.521973 -0.027901837328183635
0.522461 -0.010429645968581572
0.522949 0.008932881452793136
0.523438 0.033900821801821746
0.523926 0.06019259371461543
0.524414 0.0705029755783533
0.524902 0.06275677196875498
0.525391 0.06015681448316232
0.525879 0.07085480468764221
0.526367 0.07839825931900625
0.526855 0.07496941630474988
0.527344 0.0651778332970821
0.527832 0.04140849720173267
0.528320 -0.00038164513549984025
0.528809 -0.02958942441172199
0.529297 -0.018652905997554693
0.529785 0.012737406397307168
0.530273 0.032326535617884906
0.530762 0.03604757568900835
0.531250 0.0299829959577062
0.531738 0.011353942781120247
0.532227 -0.01419242847640031
0.532715 -0.026393146401910827
0.533203 -0.01505113003127495
0.533691 0.006189807041388034
0.534180 0.018855654975788984
0.534668 0.022040006575115775
0.535156 0.027711014760433715
0.535645 0.03700168852775795
0.536133 0.03309578909412677
0.536621 0.00829481849187934
0.537109 -0.020584984496022633
0.537598 -0.041688767848115364
0.538086 -0.06250631734858321
0.538574 -0.08003814076060713
0.539062 -0.07458777116925003
0.539551 -0.04694235166648035
0.540039 -0.02363218237477917
0.540527 -0.026172507807949982
0.541016 -0.06276273517399716
0.541504 -0.11604993721816237
0.541992 -0.13438083013263907
0.542480 -0.08977605492109524
0.542969 -0.024007864305036826
0.543457 0.019153815237898233
0.543945 0.05195740727515794
0.544434 0.08123078180904413
0.544922 0.0819940720800438
0.545410 0.06332327646676256
0.545898 0.05834400008953808
0.546387 0.06114670655336503
0.546875 0.053621141537727554
0.547363 0.04179610554247469
0.547852 0.027913763738668003
0.548340 0.006857686028512755
0.548828 -0.016547894547063385
0.549316 -0.03745489212616401
0.549805 -0.05215419304815005
0.550293 -0.05814125111130379
0.550781 -0.0627090663268175
0.551270 -0.06377648006516862
0.551758 -0.04369240480948952
0.552246 -0.005426516770388354
0.552734 0.02370374083768539
0.553223 0.026059206908348467
0.553711 0.0017710719569289462
0.554199 -0.03469392809903235
0.554688 -0.05470644489180523
0.555176 -0.04481945060026249
0.555664 -0.032928819347345595
0.556152 -0.050007439160963445
0.556641 -0.07600701401689006
0.557129 -0.06956675235533026
0.557617 -0.035117315671227486
0.558105 -0.0030650874944830923
0.558594 0.025278027021622233
0.559082 0.057658231486686806
0.559570 0.0816362797655127
0.560059 0.09210170496554738
0.560547 0.09735528878391238
0.561035 0.09480900014549938
0.561523 0.08037804345941167
0.562012 0.0608008406493183
0.562500 0.044479547901457944
0.562988 0.04112226335010779
0.563477 0.062404942859466066
0.563965 0.1000923999900753
0.564453 0.11342612691160096
0.564941 0.06894657901014302
0.565430 -0.013757114493720805
0.565918 -0.08389037134705864
0.566406 -0.11061745724253183
0.566895 -0.09002650954126701
0.567383 -0.03981632140206927
0.567871 -0.0009242968125386756
0.568359 0.002599957485592662
0.568848 -0.0032022412150533473
0.569336 0.010984224056104778
0.569824 0.03319120037800173
0.570312 0.05037119468073673
0.570801 0.07331164524742244
0.571289 0.0922150058651489
0.571777 0.06911951196216638
0.572266 -0.0074361169370047
0.572754 -0.08940037299083758
0.573242 -0.12115444090547273
0.573730 -0.11644947196938876
0.574219 -0.12757084974606378
0.574707 -0.15140578109907726
0.575195 -0.13725509505937225
0.575684 -0.07233964279294629
0.576172 -0.0019380417037101264
0.576660 0.02191477926502989
0.577148 -0.00899847671045717
0.577637 -0.05072302379002564
0.578125 -0.05876142445649103
0.578613 -0.037973690982234104
0.579102 -0.018336856119718886
0.579590 -0.012767222423518094
0.580078 -0.016893760451110115
0.580566 -0.018849691770546798
0.581055 -0.006279255120020809
0.581543 0.018879507796757723
0.582031 0.03865945958508538
0.582520 0.04332268608447405
0.583008 0.040239708974264404
0.583496 0.031950853687627255
0.583984 0.013053456275142974
0.584473 -0.010334234684706612
0.584961 -0.020573058085538262
0.585449 -0.0145144415594783
0.585938 -0.011658066248471682
0.586426 -0.012129159462604297
0.586914 0.016726790704328937
0.587402 0.07572674337050736
0.587891 0.11206651611638278
0.588379 0.09155309008326637
0.588867 0.0448969722684109
0.589355 0.014806638616345366
0.589844 -0.0006142101399450555
0.590332 -0.009159483251996167
0.590820 0.004120574822349838
0.591309 0.03152150291018993
0.591797 0.04601805485394168
0.592285 0.04968542607788545
0.592773 0.061641652588466385
0.593262 0.0788156836859592
0.593750 0.0839440401942383
0.594238 0.0741226411603596
0.594727 0.05056798045372883
0.595215 0.0047526745780214485
0.595703 -0.04740748167537078
0.596191 -0.06612598293058951
0.596680 -0.05063953891663506
0.597168 -0.03396641705948578
0.597656 -0.020561131675053895
0.598145 0.0006320997556716105
0.598633 0.018801986128609317
0.599121 0.025486739205098707
0.599609 0.024568405597802215
0.600098 0.009851215060089626
0.600586 -0.018354745735445443
0.601074 -0.033525139871564094
0.601562 -0.016524041726094646
0.602051 0.008306744902363711
0.602539 -0.0009839288649605257
0.603027 -0.047735457963690955
0.603516 -0.09016962646707945
0.604004 -0.09125492982115711
0.604492 -0.055660557730554824
0.604980 -0.015826346712759
0.605469 0.0004293507774373203
0.605957 -0.004740748167537078
0.606445 -0.0023554660706630766
0.606934 0.017382743280969285
0.607422 0.02777661001809775
0.607910 0.013297947690072559
0.608398 -0.007275110395465705
0.608887 -0.016035058896235476
0.609375 -0.014747006563923516
0.609863 -0.003351321346107972
0.610352 0.028629348367730203
0.610840 0.07207129855704796
0.611328 0.08570914894592506
0.611816 0.0490712159379404
0.612305 0.0017174031097492812
0.612793 -0.007525565015637475
0.613281 0.013506659873549034
0.613770 0.024288134951419522
0.614258 0.020656542958928853
0.614746 0.021562950155740973
0.615234 0.01768686674832072
0.615723 -0.008437935417691781
0.616211 -0.045934569980551086
0.616699 -0.06356180467644995
0.617188 -0.055004605153914476
0.617676 -0.0621544882392943
0.618164 -0.10432031250678446
0.618652 -0.13685556030814583
0.619141 -0.1277974515452668
0.619629 -0.09553651118504596
0.620117 -0.05588119632451567
0.620605 -0.006476040893012914
0.621094 0.03628610389869575
0.621582 0.04618502460072286
0.622070 0.02957749800123762
0.622559 0.015212136572813945
0.623047 0.011574581375081093
0.623535 0.008467751443902705
0.624023 0.005653118569591384
0.624512 0.007251257574496965
0.625000 0.010769548667386117
0.625488 0.014126833218736274
0.625977 0.017263479176125588
0.626465 0.032851297679197186
0.626953 0.07155846290622005
0.627441 0.10275198952808981
0.627930 0.09030081698240752
0.628418 0.048868466959706106
0.628906 0.010757622256901748
0.629395 -0.014735080153439144
0.629883 -0.02414501802560708
0.630371 -0.01373922487799425
0.630859 0.006100358962755259
0.631348 0.021026261683944326
0.631836 0.026864239616043444
0.632324 0.031622877399307074
0.632812 0.04748500334351919
0.633301 0.06646588562939405
0.633789 0.06670441383908146
0.634277 0.047282254365284895
0.634766 0.024961977143786427
0.635254 0.014317655786486194
0.635742 0.023518881475177656
0.636230 0.046208877421691594
0.636719 0.0621544882392943
0.637207 0.05731236558264007
0.637695 0.038271851244343354
0.638184 0.025749120235754847
0.638672 0.029833915826651576
0.639160 0.03483108181960261
0.639648 0.02619039742367654
0.640137 0.01614835979583699
0.640625 0.0163034031321338
0.641113 0.016118543769626067
0.641602 0.007358595268856295
0.642090 -0.006768237949879979
0.642578 -0.02378722571107598
0.643066 -0.038295704065312096
0.643555 -0.04225527234612294
0.644043 -0.04363873596230986
0.644531 -0.06353795185548122
0.645020 -0.09290077446800017
0.645508 -0.10133870988569196
0.645996 -0.09903691266220854
0.646484 -0.10523268290883876
0.646973 -0.09315122908817194
0.647461 -0.04964368364119016
0.647949 -0.016279550311165063
0.648438 -0.021223047456936428
0.648926 -0.03741314968946872
0.649414 -0.033304501277603246
0.649902 -0.019636834862515218
0.650391 -0.022218902732381324
0.650879 -0.03603564927852398
0.651367 -0.03416320283247789
0.651855 -0.008306744902363711
0.652344 0.01518232054660302
0.652832 0.0007334742447887555
0.653320 -0.049327633763354355
0.653809 -0.08896505900815807
0.654297 -0.08623391100723735
0.654785 -0.05997791832589677
0.655273 -0.04725243833907397
0.655762 -0.05863023394116296
0.656250 -0.07278688318611017
0.656738 -0.06760485783065139
0.657227 -0.0479560965576518
0.657715 -0.0375383769995546
0.658203 -0.0392080744673664
0.658691 -0.027830278865277412
0.659180 -0.00015504333629681011
0.659668 0.017394669691453656
0.660156 0.015868089149454295
0.660645 0.012659884729158764
0.661133 0.017203847123703736
0.661621 0.01905244074878109
0.662109 0.017346964049516175
0.662598 0.025188578942989457
0.663086 0.039178258441155474
0.663574 0.04133693873882645
0.664062 0.021449649256139458
0.664551 -0.007907210151137316
0.665039 -0.018074475089062746
0.665527 -0.0010733769435933007
0.666016 0.02699543013137151
0.666504 0.056727971468905944
0.666992 0.08644262319071382
0.667480 0.11170872380185168
0.667969 0.12586537304679887
0.668457 0.12266909503698772
0.668945 0.1012850410385123
0.669434 0.06988876543840825
0.669922 0.04746115052255045
0.670410 0.0469244620507538
0.670898 0.053644994358696296
0.671387 0.04466440726396568
0.671875 0.023489065448966732
0.672363 0.018617126766101583
0.672852 0.03755626661528116
0.673340 0.04320938518487254
0.673828 0.017591455464445762
0.674316 -0.0025820678698661066
0.674805 -0.006446224866801989
0.675293 -0.02987565826334687
0.675781 -0.0616356893832242
0.676270 -0.045922643570066715
0.676758 0.017591455464445762
0.677246 0.07496345309950768
0.677734 0.09230445394378167
0.678223 0.0746414400164297
0.678711 0.044730002521629716
0.679199 0.021980374522693923
0.679688 0.009493422745558526
0.680176 -0.006183843836145849
0.680664 -0.04000714396981919
0.681152 -0.08597749318182339
0.681641 -0.11929988407515318
0.682129 -0.12418374916850271
0.682617 -0.10021762730016118
0.683105 -0.05238079484735308
0.683594 -0.0024091349178427418
0.684082 0.016798349167235157
0.684570 0.0012224570746479258
0.685059 -0.020167560129069683
0.685547 -0.027991285406816408
0.686035 -0.029535755564542326
0.686523 -0.03245176292797079
0.687012 -0.03195681689286944
0.687500 -0.02979217338995628
0.687988 -0.0343957678369231
0.688477 -0.03879661330565563
0.688965 -0.02461014803449751
0.689453 0.009368195435472642
0.689941 0.03805121265038251
0.690430 0.04118785860777182
0.690918 0.027937616559636745
0.691406 0.013148867559017934
0.691895 0.0033334317303814172
0.692383 0.015247915804267055
0.692871 0.05396700744177429
0.693359 0.08082528385257555
0.693848 0.05888665176657692
0.694336 0.00720951513780167
0.694824 -0.025194542148231643
0.695312 -0.01792539495800812
0.695801 0.008885175810855656
0.696289 0.03283340806347063
0.696777 0.048278109640729795
0.697266 0.047663899500784736
0.697754 0.02410923879415397
0.698242 -0.0033334317303814172
0.698730 -0.002862338516248802
0.699219 0.027222031930574542
0.699707 0.06050268038720905
0.700195 0.07759322661131127
0.700684 0.07604875645358536
0.701172 0.057503188150389996
0.701660 0.018307040093507962
0.702148 -0.029404565049214255
0.702637 -0.046524927299527404
0.703125 -0.027961469380605484
0.703613 -0.020334529875850865
0.704102 -0.03230864600215835
0.704590 -0.028671090804425498
0.705078 -0.013053456275142974
0.705566 -0.007442080142246885
0.706055 0.0024508773545380367
0.706543 0.026697269869262262
0.707031 0.03850441624878857
0.707520 0.016506152110368093
0.708008 -0.03009033365206553
0.708496 -0.07745607289074102
0.708984 -0.10678907947704905
0.709473 -0.12325348915072185
0.709961 -0.13217444419303062
0.710449 -0.10584689304878382
0.710938 -0.03449117912079806
0.711426 0.03334624371429854
0.711914 0.05353169345909478
0.712402 0.035570519269633546
0.712891 0.00781776207250454
0.713379 -0.015880015559938666
0.713867 -0.026923871668465292
0.714355 -0.020310677054882122
0.714844 -0.0043173605953419425
0.715332 0.0019261152932257563
0.715820 -0.01360803436266618
0.716309 -0.032547174211845754
0.716797 -0.03001877518915931
0.717285 -0.012230533951721443
0.717773 0.013900231419533244
0.718262 0.05351380384336823
0.718750 0.08343716774865258
0.719238 0.07117085456547802
0.719727 0.02514683650629416
0.720215 -0.010566799689151828
0.720703 -0.003017381852545612
0.721191 0.030692617381526215
0.721680 0.04829599925645635
0.722168 0.04084199270372509
0.722656 0.03195681689286944
0.723145 0.03786039008263259
0.723633 0.05679356672656998
0.724121 0.07004380877470506
0.724609 0.051152374567462966
0.725098 0.007966842203559166
0.725586 -0.025892237161567286
0.726074 -0.047973986173378357
0.726562 -0.06424757327930124
0.727051 -0.057491261739905625
0.727539 -0.031646730220275816
0.728027 -0.014401140659876785
0.728516 -0.010703953409722083
0.729004 -0.011777330353315383
0.729492 -0.017120362250313145
0.729980 -0.01828915047778141
0.730469 -0.004764600988505818
0.730957 0.00766271873620773
0.731445 -0.0038701202021780676
0.731934 -0.028235776821745995
0.732422 -0.03546318157527422
0.732910 -0.02011389128189002
0.733398 -0.004663226499388673
0.733887 -0.005879720368794414
0.734375 -0.01496764515788436
0.734863 -0.021038188094428693
0.735352 -0.030829771102096473
0.735840 -0.04443184225952047
0.736328 -0.042821776844130514
0.736816 -0.026846350000316887
0.737305 -0.03060316930289344
0.737793 -0.06012103525170921
0.738281 -0.06944748825048656
0.738770 -0.033823300133673344
0.739258 0.01426398693930653
0.739746 0.039571829987139685
0.740234 0.03689435083339862
0.740723 0.01444288309657208
0.741211 -0.01319060999571323
0.741699 -0.026697269869262262
0.742188 -0.02100837206821777
0.742676 -0.012141085873088668
0.743164 -0.017740535595500387
0.743652 -0.03749663456285931
0.744141 -0.05063357571139287
0.744629 -0.03688242442291425
0.745117 -0.0019678577299210515
0.745605 0.028223850411261624
0.746094 0.03710902622211728
0.746582 0.030155928909729564
0.747070 0.022505136584006206
0.747559 0.024496847134895996
0.748047 0.034354025400227806
0.748535 0.03732370161083594
0.749023 0.019589129220577737
0.749512 -0.006750348334153424
0.750000 -0.010191117758894173
0.750488 0.01585019953372774
0.750977 0.0485524170818703
0.751465 0.07507079079386701
0.751953 0.09419479000555432
0.752441 0.09979423972796604
0.752930 0.09354480063415616
0.753418 0.08358028467446502
0.753906 0.06893465259965864
0.754395 0.04936341299480746
0.754883 0.027728904376160268
0.755371 -0.0020751954242803814
0.755859 -0.0409970360400219
0.756348 -0.06721128628466717
0.756836 -0.05706191096246831
0.757324 -0.0214735020771082
0.757812 0.004699005730841783
0.758301 0.009392048256441382
0.758789 0.0011031929698042257
0.759277 -0.02201019054890485
0.759766 -0.054915157075281704
0.760254 -0.07024655775293935
0.760742 -0.05270877113567325
0.761230 -0.01886758138627335
0.761719 0.00775813002008269
0.762207 0.022195049911412586
0.762695 0.033071936273158034
0.763184 0.034682001688547986
0.763672 0.006404482430106695
0.764160 -0.04430065174419239
0.764648 -0.07677030428788974
0.765137 -0.0678791652717919
0.765625 -0.027770646812855564
0.766113 0.021264789893631723
0.766602 0.05009688723959622
0.767090 0.039726873323436496
0.767578 0.005832014726856934
0.768066 -0.02011389128189002
0.768555 -0.028056880664480446
0.769043 -0.02992336390528435
0.769531 -0.033763668081251495
0.770020 -0.039261743314546065
0.770508 -0.04520109573576233
0.770996 -0.04143831322794359
0.771484 -0.018801986128609317
0.771973 0.011610360606534203
0.772461 0.031038483285572946
0.772949 0.03004262801012805
0.773438 0.01658963698375868
0.773926 0.010566799689151828
0.774414 0.01847997304553133
0.774902 0.030847660717823026
0.775391 0.035182910928891524
0.775879 0.020918923989584993
0.776367 -0.0007931062972106055
0.776855 -0.0010614505331089307
0.777344 0.015015350799821841
0.777832 0.009207188893933646
0.778320 -0.01792539495800812
0.778809 -0.019338674600405968
0.779297 0.01976802537784329
0.779785 0.05208263458524383
0.780273 0.04137868117552174
0.780762 0.017335037639031808
0.781250 0.015367179909110755
0.781738 0.018718501255218727
0.782227 0.006368703198653584
0.782715 -0.006189807041388034
0.783203 -0.009153520046753981
0.783691 -0.02351291826993547
0.784180 -0.05340050294376671
0.784668 -0.06401500827485603
0.785156 -0.03741314968946872
0.785645 -0.001478874900061881
0.786133 0.018205665604390818
0.786621 0.028289445668925658
0.787109 0.040853919114209464
0.787598 0.05132530751948633
0.788086 0.04657859614670706
0.788574 0.01999462717704632
0.789062 -0.025188578942989457
0.789551 -0.0725722077973915
0.790039 -0.08798113014319756
0.790527 -0.04764600988505818
0.791016 0.02153313412953005
0.791504 0.06585763869469119
0.791992 0.07012729364809565
0.792480 0.06185036477194286
0.792969 0.06282833043166121
0.793457 0.06681771473868298
0.793945 0.05569633696200794
0.794434 0.03019767134642486
0.794922 0.011860815226705974
0.795410 0.0067801643603643495
0.795898 0.001317868358522886
0.796387 -0.009910847112511476
0.796875 -0.025790862672450142
0.797363 -0.04450936392766887
0.797852 -0.05006110800814311
0.798340 -0.028480268236675578
0.798828 0.00037568193025765525
0.799316 0.008360413749543376
0.799805 0.005080650866341623
0.800293 0.014508478354236114
0.800781 0.03279166562677534
0.801270 0.04695427807696472
0.801758 0.05518350131118003
0.802246 0.047443260906823895
0.802734 0.014925902721189065
0.803223 -0.012498878187619768
0.803711 0.0013238315637650708
0.804199 0.03220727151304121
0.804688 0.023077604287255967
0.805176 -0.03803332303465595
0.805664 -0.1021974114405666
0.806152 -0.11547150630967042
0.806641 -0.08387844493657427
0.807129 -0.0526491390832514
0.807617 -0.03430631975829033
0.808105 -0.014687374511501665
0.808594 -0.0019559313194366813
0.809082 -0.011145230597643772
0.809570 -0.023339985317912107
0.810059 -0.009892957496784921
0.810547 0.01855153150843755
0.811035 0.030012811983917125
0.811523 0.019398306652827817
0.812012 0.005814125111130379
0.812500 -0.0021765699133975266
0.812988 -0.011675955864198237
0.813477 -0.022528989404974945
0.813965 -0.025272063816380048
0.814453 -0.020859291937163144
0.814941 -0.016088727743415143
0.815430 -0.006332923967200474
0.815918 0.008336560928574635
0.816406 0.011616323811776387
0.816895 -0.001514654131514991
0.817383 -0.013888305009048875
0.817871 -0.010638358152058047
0.818359 0.0034705854509516723
0.818848 0.015975426843813628
0.819336 0.024288134951419522
0.819824 0.024407399056263223
0.820312 0.0010614505331089307
0.820801 -0.038736981253233785
0.821289 -0.05096751520495523
0.821777 -0.01806254867857838
0.822266 0.010274602632284762
0.822754 -0.005730640237739789
0.823242 -0.029738504542776614
0.823730 -0.018474009840289143
0.824219 0.0071856623168329295
0.824707 0.011461280475479578
0.825195 -0.00038164513549984025
0.825684 -0.005772382674435084
0.826172 0.0035540703243422626
0.826660 0.019583166015335555
0.827148 0.02857567952055054
0.827637 0.026232139860371834
0.828125 0.020507462827874228
0.828613 0.017985027010429974
0.829102 0.012260349977932369
0.829590 -0.0036971872501547023
0.830078 -0.015432775166774791
0.830566 -0.0021050114504913065
0.831055 0.028516047468128688
0.831543 0.04905928952745603
0.832031 0.04448551110670013
0.832520 0.011586507785565463
0.833008 -0.04360891993609894
0.833496 -0.09251316612725816
0.833984 -0.10175017104740272
0.834473 -0.07202955612035267
0.834961 -0.03756819302576553
0.835449 -0.02203404336987359
0.835938 -0.012993824222721124
0.836426 0.009469569924589786
0.836914 0.04546347676641847
0.837402 0.08284084722443408
0.837891 0.10268639427042577
0.838379 0.08997284069408734
0.838867 0.056274767870499884
0.839355 0.02796743258584767
0.839844 0.014371324633665859
0.840332 0.008742058885043216
0.840820 0.0036733344291859627
0.841309 -0.006231549478083329
0.841797 -0.019046477543538904
0.842285 -0.024514736750622552
0.842773 -0.02097259283676466
0.843262 -0.022123491448506366
0.843750 -0.037383333663257794
0.844238 -0.05935774498070953
0.844727 -0.0748799682261171
0.845215 -0.07172543265300123
0.845703 -0.04513550047809829
0.846191 -0.013888305009048875
0.846680 -0.003166461983600237
0.847168 -0.008491604264871446
0.847656 -0.009052145557636835
0.848145 -0.004341213416310683
0.848633 -0.00797280540880135
0.849121 -0.014448846301814264
0.849609 -0.0032916892936861223
0.850098 0.02514683650629416
0.850586 0.05051431160654917
0.851074 0.058707755609311366
0.851562 0.050544127632760096
0.852051 0.03969705729722557
0.852539 0.03998925435409264
0.853027 0.049703315693612006
0.853516 0.054372505398242864
0.854004 0.04778316360562844
0.854492 0.04081813988275635
0.854980 0.039887879864975495
0.855469 0.03834340970724957
0.855957 0.035391623112368
0.856445 0.04091355116663131
0.856934 0.05749722494514781
0.857422 0.060437085129545015
0.857910 0.017484117770086433
0.858398 -0.05070513417429909
0.858887 -0.07863678752869364
0.859375 -0.050997331231166156
0.859863 -0.01938638024234345
0.860352 -0.012224570746479257
0.860840 -0.009433790693136676
0.861328 8.348487339059005e-05
0.861816 0.004663226499388673
0.862305 0.004794417014716743
0.862793 0.018569421124164102
0.863281 0.04557677766601999
0.863770 0.05684723557374964
0.864258 0.03687646121767207
0.864746 0.004794417014716743
0.865234 -0.018825838949578056
0.865723 -0.04043053154201433
0.866211 -0.07039563788399397
0.866699 -0.09282325279985178
0.867188 -0.09208381534982084
0.867676 -0.07826110559843599
0.868164 -0.06267925030060657
0.868652 -0.049995512750479074
0.869141 -0.04423505648652836
0.869629 -0.0354691447805164
0.870117 -0.017299258407578698
0.870605 -0.011693845479924792
0.871094 -0.02034049308109305
0.871582 -0.0007811798867262355
0.872070 0.04632217832129311
0.872559 0.06091414154891982
0.873047 0.03144994444728371
0.873535 0.007954915793074795
0.874023 0.004096722001381098
0.874512 -0.012153012283573038
0.875000 -0.04041860513152996
0.875488 -0.049393229021018385
0.875977 -0.040877771935178206
0.876465 -0.035642077732539766
0.876953 -0.024019790715521197
0.877441 0.008121885539855975
0.877930 0.04158143015375603
0.878418 0.048033618225800205
0.878906 0.025230321379684752
0.879395 -0.005826051521614749
0.879883 -0.025468849589372154
0.880371 -0.028074770280207
0.880859 -0.01863501638182814
0.881348 -0.0049494603510135534
0.881836 0.008175554387035641
0.882324 0.021515244513803496
0.882812 0.03871909163750723
0.883301 0.05331701807037612
0.883789 0.049196443248026286
0.884277 0.025719304209543922
0.884766 0.007084287827715785
0.885254 0.01783594687937535
0.885742 0.0515757621396581
0.886230 0.07010344082712691
0.886719 0.04722858551810523
0.887207 0.005170098944974399
0.887695 -0.009344342614503901
0.888184 0.014508478354236114
0.888672 0.0358269370950475
0.889160 0.020740027832319444
0.889648 -0.019857473456476062
0.890137 -0.05754493058708529
0.890625 -0.07103370084490777
0.891113 -0.05051431160654917
0.891602 -0.0013953900266712909
0.892090 0.04749096654876137
0.892578 0.05705594775722612
0.893066 0.025689488183332998
0.893555 -0.004359103032037238
0.894043 -0.00656548897164569
0.894531 0.006070542936544334
0.895020 0.015206173367571761
0.895508 0.01366766641508803
0.895996 0.004126538027592023
0.896484 -0.0018605200355617212
0.896973 -0.0024389509440536665
0.897461 -0.010644321357300233
0.897949 -0.026142691781739058
0.898438 -0.0301022600625499
0.898926 -0.017024950966438187
0.899414 -0.0041563540538029475
0.899902 -0.009064071968121206
0.900391 -0.029929327110526534
0.900879 -0.046990057308417835
0.901367 -0.04704968936083968
0.901855 -0.037973690982234104
0.902344 -0.031324717137197824
0.902832 -0.02728762718823858
0.903320 -0.02377529930059161
0.903809 -0.022338166837225025
0.904297 -0.02283311287232638
0.904785 -0.028480268236675578
0.905273 -0.043125900311481946
0.905762 -0.05035330506501017
0.906250 -0.027186252699121432
0.906738 0.01649422569988372
0.907227 0.051665210218290875
0.907715 0.07150479405904038
0.908203 0.08256653978329356
0.908691 0.0792509976686387
0.909180 0.0569426468576246
0.909668 0.023721630453411947
0.910156 -0.010709916614964267
0.910645 -0.032088007408197505
0.911133 -0.026434888838606122
0.911621 -0.0020036369613741613
0.912109 0.020090038460921278
0.912598 0.029404565049214255
0.913086 0.030764175844432435
0.913574 0.03542740234382111
0.914062 0.04044842115774088
0.914551 0.03280955524250189
0.915039 0.019929031919382282
0.915527 0.021837257596881484
0.916016 0.03645307364547693
0.916504 0.042141971446521424
0.916992 0.03318523717275955
0.917480 0.025003719580481722
0.917969 0.021670287850100306
0.918457 0.010668174178268972
0.918945 -0.01474104335868133
0.919434 -0.04858223310808123
0.919922 -0.07516620207774198
0.920410 -0.08189269759092666
0.920898 -0.06592323395235522
0.921387 -0.023017972234834115
0.921875 0.037448928920921824
0.922363 0.08172572784414547
0.922852 0.08657381370604189
0.923340 0.05716924865682763
0.923828 0.010238823400831652
0.924316 -0.03408568116432948
0.924805 -0.05383581692644621
0.925293 -0.041760326311021584
0.925781 -0.02234413004246721
0.926270 -0.025975722034957877
0.926758 -0.043740110451427006
0.927246 -0.045314396635363845
0.927734 -0.023793188916318167
0.928223 0.005164135739732213
0.928711 0.01923133690604664
0.929199 0.011461280475479578
0.929688 -0.005074687661099439
0.930176 -0.030692617381526215
0.930664 -0.0639792290434029
0.931152 -0.07827303200892036
0.931641 -0.06638836396124564
0.932129 -0.045254764582941996
0.932617 -0.022028080164631404
0.933105 -0.010119559295987951
0.933594 -0.02161661900292064
0.934082 -0.02949401312784703
0.934570 -0.004072869180412358
0.935059 0.03537373349664144
0.935547 0.052798219214306025
0.936035 0.04417542443410651
0.936523 0.02856375311006617
0.937012 0.019368490626616892
0.937500 0.017311184818063065
0.937988 0.014913976310704695
0.938477 0.00669667948697376
0.938965 -0.0023316132496943366
0.939453 -0.005056798045372884
0.939941 -0.0022004227343662666
0.940430 -0.0020692322190381963
0.940918 -0.011216789060549993
0.941406 -0.01848593625077351
0.941895 -0.004925607530044813
0.942383 0.023566587117115137
0.942871 0.0434240605735912
0.943359 0.05220786189532971
0.943848 0.06531498701765234
0.944336 0.08442705981885529
0.944824 0.09207188893933646
0.945312 0.06739018244193273
0.945801 0.015104798878454615
0.946289 -0.02548077599985652
0.946777 -0.026649564227324785
0.947266 -0.005080650866341623
0.947754 0.009427827487894492
0.948242 0.010268639427042576
0.948730 0.010960371235136037
0.949219 0.01951160755242933
0.949707 0.023292279675974626
0.950195 0.008795727732222881
0.950684 -0.009994331985902067
0.951172 -0.007931062972106055
0.951660 0.009398011461683566
0.952148 0.009487459540316342
0.952637 -0.018313003298750147
0.953125 -0.05282803524051695
0.953613 -0.07500519553620298
0.954102 -0.07251257574496965
0.954590 -0.03629206710393793
0.955078 0.011854852021463788
0.955566 0.024061533152216492
0.956055 -0.011079635339979738
0.956543 -0.047288217570527084
0.957031 -0.05016844570250244
0.957520 -0.03982824781255364
0.958008 -0.037997543803202846
0.958496 -0.033000377810251814
0.958984 -0.017901542137039383
0.959473 -0.010053964038323917
0.959961 -0.019750135762116733
0.960449 -0.029547681975026694
0.960938 -0.017364853665242732
0.961426 0.011282384318214028
0.961914 0.03620261902530516
0.962402 0.05261335985179829
0.962891 0.058779314072217585
0.963379 0.043740110451427006
0.963867 0.014049311550587869
0.964355 0.001604102210147766
0.964844 0.020262971412944645
0.965332 0.03542740234382111
0.965820 0.012212644335994888
0.966309 -0.02983987903189376
0.966797 -0.0539610442365321
0.967285 -0.055988534018875005
0.967773 -0.04198096490498243
0.968262 -0.00873609567980103
0.968750 0.03274395998483786
0.969238 0.05229730997396249
0.969727 0.03408568116432948
0.970215 -0.002993529031576872
0.970703 -0.03400815949618108
0.971191 -0.049011583885518545
0.971680 -0.03946449229278036
0.972168 -0.009445717103621047
0.972656 0.012946118580783643
0.973145 0.008885175810855656
0.973633 -0.004889828298591703
0.974121 -0.003399026988045452
0.974609 0.004430661494943458
0.975098 -0.004615520857451193
0.975586 -0.02066250616417104
0.976074 -0.017829983674133163
0.976562 0.0047526745780214485
0.977051 0.030448125966596632
0.977539 0.047514819369730114
0.978027 0.05533854464747684
0.978516 0.06412234596921534
0.979004 0.07752763135364724
0.979492 0.0842600900720741
0.979980 0.07867256676014676
0.980469 0.06072928218641208
0.980957 0.02258265825215461
0.981445 -0.03087747674403395
0.981934 -0.06552369920112883
0.982422 -0.055225243747875324
0.982910 -0.019809767814538585
0.983398 0.00015504333629681011
0.983887 -0.010805327898839227
0.984375 -0.03688838762815644
0.984863 -0.0532454596074699
0.985352 -0.04301856261712262
0.985840 -0.00726914719022352
0.986328 0.032541211006603565
0.986816 0.05721099109352293
0.987305 0.0640984931482466
0.987793 0.04647125845234774
0.988281 0.008986550299972801
0.988770 -0.007215478343043855
0.989258 0.01528965824096235
0.989746 0.03939889703511632
0.990234 0.03282148165298626
0.990723 -0.0033393949356236023
0.991211 -0.044551106364364164
0.991699 -0.06404482430106695
0.992188 -0.06244668529616136
0.992676 -0.05380600090023529
0.993164 -0.03775305238827326
0.993652 -0.017454301743875508
0.994141 -0.011061745724253183
0.994629 -0.03128297470050253
0.995117 -0.07826706880367817
0.995605 -0.1253823534221819
0.996094 -0.11626461260688102
0.996582 -0.037836537261663854
0.997070 0.04134290194406863
0.997559 0.05979902216863122
0.998047 0.034228798090141926
0.998535 0.008402156186238671
0.999023 -0.010984224056104778
0.999512 -0.03319716358324392
1.000000 -0.0460896133168479
1.000488 -0.03459255360991521
1.000977 -0.006452188072044175
1.001465 0.017185957507977183
1.001953 0.02129460591984265
1.002441 0.007716387583387396
1.002930 -0.005325142281271208
1.003418 0.003077013904967462
1.003906 0.03168847265697111
1.004395 0.05220786189532971
1.004883 0.046900609229785055
1.005371 0.026929834873707478
1.005859 0.006344850377684844
1.006348 -0.009886994291542738
1.006836 -0.021539097334772234
1.007324 -0.03183158958278355
1.007812 -0.03759800905197645
1.008301 -0.029547681975026694
1.008789 -0.012015858563002782
1.009277 0.002916007363428467
1.009766 0.016273587105922877
1.010254 0.03024537698836234
1.010742 0.03725214314792972
1.011230 0.033155421146548625
1.011719 0.02323861082879496
1.012207 0.014305729376001825
1.012695 0.00823518643945749
1.013184 0.005003129198193218
1.013672 0.009219115304418017
1.014160 0.026065170113590653
1.014648 0.04421716687080181
1.015137 0.037365444047531234
1.015625 0.0061778806309036646
1.016113 -0.006881538849481494
1.016602 0.019881326277444804
1.017090 0.05457525437647716
1.017578 0.0698649126174395
1.018066 0.07350246781517236
1.018555 0.07085480468764221
1.019043 0.04920240645326847
1.019531 0.0049971659929510335
1.020020 -0.036339772745875416
1.020508 -0.0482363672040345
1.020996 -0.03876679727944471
1.021484 -0.03088940315451832
1.021973 -0.031867368814236664
1.022461 -0.03917229523591329
1.022949 -0.043668551988520786
1.023438 -0.03574345222165692
1.023926 -0.0315751717573696
1.024414 -0.047968022968136174
1.024902 -0.05625091504953114
1.025391 -0.029607314027448546
1.025879 -0.0019022624722570163
1.026367 -0.0136795928255724
1.026855 -0.04209426580458395
1.027344 -0.03824203521813243
1.027832 0.0018605200355617212
1.028320 0.044348357386129876
1.028809 0.0647365561091604
1.029297 0.06212467221308337
1.029785 0.05102714725737708
1.030273 0.04286351928082581
1.030762 0.031640767015033634
1.031250 0.018760243691914022
1.031738 0.021968448112209556
1.032227 0.03685857160194551
1.032715 0.036184729409578606
1.033203 0.013178683585228858
1.033691 -0.012129159462604297
1.034180 -0.026250029476098388
1.034668 -0.036697565060406515
1.035156 -0.05246427972074367
1.035645 -0.06505856919223839
1.036133 -0.05812336149557724
1.036621 -0.03265451190620508
1.037109 -0.00730492642167663
1.037598 0.0007931062972106055
1.038086 -0.016237807874469767
1.038574 -0.050150556086775884
1.039062 -0.07459373437449221
1.039551 -0.06782549642461223
1.040039 -0.03863560676411664
1.040527 -0.009827362239120887
1.041016 0.019273079342741934
1.041504 0.058695829198826995
1.041992 0.09529798297535855
1.042480 0.10511938200923725
1.042969 0.07883953650692793
1.043457 0.031640767015033634
1.043945 -0.009535165182253821
1.044434 -0.032630659085236345
1.044922 -0.03639344159305508
1.045410 -0.02127075309887391
1.045898 -0.00023256500444521514
1.046387 0.015104798878454615
1.046875 0.027120657441457398
1.047363 0.04043053154201433
1.047852 0.05785501725967891
1.048340 0.07097406879248591
1.048828 0.058862798945608176
1.049316 0.02192670567551426
1.049805 -0.006279255120020809
1.050293 1.7889615726555013e-05
1.050781 0.025039498811934832
1.051270 0.03558244568011792
1.051758 0.026774791537410667
1.052246 0.022564768636428055
1.052734 0.04210022900982613
1.053223 0.07604279324834318
1.053711 0.0931691187038985
1.054199 0.07969823806180258
1.054688 0.05337665012279797
1.055176 0.026971577310402773
1.055664 -0.005378811128450874
1.056152 -0.044706149700660974
1.056641 -0.07932255613154493
1.057129 -0.09793371969240432
1.057617 -0.10102862321309834
1.058105 -0.09266224625831278
1.058594 -0.07281669921232109
1.059082 -0.046125392548301
1.059570 -0.018617126766101583
1.060059 0.0035600335295844472
1.060547 0.005939352421216264
1.061035 -0.01768090354307854
1.061523 -0.0524523533102593
1.062012 -0.07589371311728854
1.062500 -0.07251257574496965
1.062988 -0.049995512750479074
1.063477 -0.034497142326040245
1.063965 -0.032702217548142565
1.064453 -0.022815223256599824
1.064941 0.003917825844115548
1.065430 0.016279550311165063
1.065918 -0.021068004120639618
1.066406 -0.08885175810855656
1.066895 -0.12563877124759584
1.067383 -0.1050597499568154
1.067871 -0.050997331231166156
1.068359 0.011401648423057728
1.068848 0.0655773680483085
1.069336 0.09419479000555432
1.069824 0.09820206392830265
1.070312 0.09435579654709332
1.070801 0.08213718900585625
1.071289 0.05358536230627445
1.071777 0.02237990927392032
1.072266 0.002576104664623922
1.072754 -0.007442080142246885
1.073242 -0.007203551932559485
1.073730 0.007137956674895449
1.074219 0.02911236799234719
1.074707 0.03839111534918706
1.075195 0.022898708129990415
1.075684 0.005832014726856934
1.076172 0.021258826688389538
1.076660 0.06334116608248912
1.077148 0.09490441142937434
1.077637 0.09625209581410815
1.078125 0.0722919371510088
1.078613 0.032773776011048784
1.079102 -0.00787739412492639
1.079590 -0.037079210195906355
1.080078 -0.060126998456951394
1.080566 -0.08430779571401159
1.081055 -0.10133870988569196
1.081543 -0.1020364048990276
1.082031 -0.0860132724132765
1.082520 -0.06179073271952101
1.083008 -0.04470018649541879
1.083496 -0.034968235540172865
1.083984 -0.017752462005984758
1.084473 0.0018128143936242413
1.084961 0.006398519224864509
1.085449 0.003011418647303427
1.085938 0.009827362239120887
1.086426 0.025283990226864415
1.086914 0.03150361329446338
1.087402 0.019940958329866653
1.087891 0.011485133296448317
1.088379 0.024377583030052295
1.088867 0.030907292770244874
1.089355 0.006154027809934924
1.089844 -0.02347713903848236
1.090332 -0.02983987903189376
1.090820 -0.01575478824985278
1.091309 0.0071856623168329295
1.091797 0.026625711406356042
1.092285 0.031324717137197824
1.092773 0.02098451924724903
1.093262 0.0039297522545999174
1.093750 -0.01624377107971195
1.094238 -0.03728792237938283
1.094727 -0.044097902765958104
1.095215 -0.023864747379224387
1.095703 0.011586507785565463
1.096191 0.03772919956730452
1.096680 0.04400845468732533
1.097168 0.03909477356776488
1.097656 0.0298637318528625
1.098145 0.010531020457698718
1.098633 -0.01605294851196203
1.099121 -0.03183755278802573
1.099609 -0.034878787461540085
1.100098 -0.044634591237754755
1.100586 -0.06666863460762834
1.101074 -0.08108766488323169
1.101562 -0.06860071310609629
1.102051 -0.0345567743784621
1.102539 -0.007585197068059325
1.103027 -0.007430153731762515
1.103516 -0.010626431741573678
1.104004 0.016273587105922877
1.104492 0.05844537457865522
1.104980 0.07691342121370218
1.105469 0.06333520287724692
1.105957 0.039488345113749095
1.106445 0.02638718319666864
1.106934 0.027734867581402454
1.107422 0.032022412150533475
1.107910 0.026900018847496553
1.108398 0.01639881441600876
1.108887 0.01267777434488532
1.109375 0.016178175822047915
1.109863 0.02209367542229544
1.110352 0.03514713169743841
1.110840 0.06183843836145849
1.111328 0.0920182200921568
1.111816 0.10265061503897266
1.112305 0.08385459211560553
1.112793 0.054783966559953635
1.113281 0.04685886679308976
1.113770 0.06706816935885473
1.114258 0.08620409498102642
1.114746 0.06984105979647076
1.115234 0.009445717103621047
1.115723 -0.07514234925677324
1.116211 -0.14795904846909433
1.116699 -0.18119795448903353
1.117188 -0.17147792994427197
1.117676 -0.12831028719609472
1.118164 -0.06975161171783799
1.118652 -0.021205157841209875
1.119141 0.004681116115115228
1.119629 0.010882849566987632
1.120117 0.005068724455857253
1.120605 -0.0017293295202336512
1.121094 -0.004132501232834208
1.121582 -0.009791583007667777
1.122070 -0.02412116520463834
1.122559 -0.03629803030918012
1.123047 -0.04030530423192844
1.123535 -0.05382389051596185
1.124023 -0.07192221842599333
1.124512 -0.04378781609336448
1.125000 0.03718654789026569
1.125488 0.09653236646049085
1.125977 0.08550043676244859
1.126465 0.04400249148208314
1.126953 0.028939435040323824
1.127441 0.039202111262124216
1.127930 0.03870120202178068
1.128418 0.01370344564654114
1.128906 -0.02812247592214448
1.129395 -0.08137986194009875
1.129883 -0.11652103043229498
1.130371 -0.08500549072734723
1.130859 -0.009254894535871127
1.131348 0.02899310388750349
1.131836 0.01565937696597782
1.132324 0.008288855286637156
1.132812 0.0339604538542436
1.133301 0.05904765830811591
1.133789 0.0442589093074971
1.134277 -0.003279762883201752
1.134766 -0.03182562637754137
1.135254 -0.0004412771879216903
1.135742 0.05671604505842157
1.136230 0.07309100665346159
1.136719 0.054539475145024045
1.137207 0.051438608419087845
1.137695 0.06238705324373951
1.138184 0.050544127632760096
1.138672 0.013673629620330214
1.139160 -0.020573058085538262
1.139648 -0.04007870243272541
1.140137 -0.045982275622488564
1.140625 -0.03484897143532916
1.141113 -0.017537786617266096
1.141602 -0.016464409673672797
1.142090 -0.033900821801821746
1.142578 -0.057276586351186966
1.143066 -0.07652581287296016
1.143555 -0.08162435335502834
1.144043 -0.06849337541173696
1.144531 -0.04329883326350532
1.145020 -0.016023132485751105
1.145508 0.0009600760439917856
1.145996 -0.0004233875721951353
1.146484 -0.015677266581704374
1.146973 -0.026929834873707478
1.147461 -0.013011713838447679
1.147949 0.022731738383209237
1.148438 0.05066339173760379
1.148926 0.0537225160268447
1.149414 0.03780075803021074
1.149902 0.010560836483909642
1.150391 -0.02121112104645206
1.150879 -0.04385341135102852
1.151367 -0.043358465315927165
1.151855 -0.024634000855466253
1.152344 -0.011407611628299912
1.152832 -0.01633918236358691
1.153320 -0.02555233446276274
1.153809 -0.018927213438695203
1.154297 0.0034467326299829322
1.154785 0.0244551046982007
1.155273 0.0369420564753361
1.155762 0.047807016426597175
1.156250 0.05321564358125898
1.156738 0.04022181935853785
1.157227 0.020501499622632043
1.157715 0.022898708129990415
1.158203 0.04912488478512006
1.158691 0.07499326912571862
1.159180 0.07560747926566366
1.159668 0.034425583863134025
1.160156 -0.03335220691954073
1.160645 -0.07215478343043855
1.161133 -0.04556485125553562
1.161621 0.006088432552270889
1.162109 0.018569421124164102
1.162598 -0.00651778332970821
1.163086 -0.018915287028210832
1.163574 -0.0001669697467811801
1.164062 0.02276155440942016
1.164551 0.026369293580942088
1.165039 0.01536121670386857
1.165527 0.0010018184806870807
1.166016 -0.01694742929828978
1.166504 -0.029535755564542326
1.166992 -0.009445717103621047
1.167480 0.042463984529599416
1.167969 0.08009777281302898
1.168457 0.07706250134475681
1.168945 0.06313245389901263
1.169434 0.07418227321278145
1.169922 0.10110614488124674
1.170410 0.10463039917937808
1.170898 0.06817732553390116
1.171387 0.015933684407118332
1.171875 -0.020161596923827498
1.172363 -0.033149457941306436
1.172852 -0.03545125516478985
1.173340 -0.034270540526837215
1.173828 -0.024854639449427098
1.174316 -0.0038403041759671424
1.174805 0.018086401499547117
1.175293 0.025957832419231323
1.175781 0.010393866737128462
1.176270 -0.032916892936861224
1.176758 -0.08691371640484644
1.177246 -0.1197709772892858
1.177734 -0.12260349977932368
1.178223 -0.1135275014007181
1.178711 -0.10882253246463414
1.179199 -0.10916839836868086
1.179688 -0.10772530270007209
1.180176 -0.09380718166481229
1.180664 -0.058182993547999086
1.181152 -0.010286529042769131
1.181641 0.02781238924955086
1.182129 0.05026982019161958
1.182617 0.06374070083371551
1.183105 0.060967810396099484
1.183594 0.0326485487009629
1.184082 -0.007716387583387396
1.184570 -0.03508749964501656
1.185059 -0.037019578143484506
1.185547 -0.023590439938083876
1.186035 -0.015426811961532606
1.186523 -0.013214462816681968
1.187012 0.0001431169258124401
1.187500 0.023566587117115137
1.187988 0.044551106364364164
1.188477 0.06166550540943513
1.188965 0.06783742283509661
1.189453 0.046310251910808745
1.189941 -0.0018068511883820562
1.190430 -0.04391304340345037
1.190918 -0.04610750293257445
1.191406 -0.018241444835843928
1.191895 -0.0019082256774992012
1.192383 -0.007382448089825035
1.192871 -0.0009302600177808606
1.193359 0.02936282261251896
1.193848 0.048576269902839045
1.194336 0.035862716326500614
1.194824 0.009559018003222562
1.195312 -0.006380629609137954
1.195801 0.0036375551977328524
1.196289 0.034884750666782274
1.196777 0.05301885780826687
1.197266 0.03532006464946178
1.197754 -0.0021765699133975266
1.198242 -0.03811680790804654
1.198730 -0.05842748496292867
1.199219 -0.045004309962770224
1.199707 0.001502727721030621
1.200195 0.0522913467687203
1.200684 0.08317478671799644
1.201172 0.08512475483219094
1.201660 0.05263721267276703
1.202148 -0.0028146328743113218
1.202637 -0.047365739238675486
1.203125 -0.05713943263061671
1.203613 -0.04790839091571432
1.204102 -0.04481945060026249
1.204590 -0.03180177355657263
1.205078 0.011306237139182768
1.205566 0.049542309152073014
1.206055 0.03929752254599918
1.206543 -0.0004233875721951353
1.207031 -0.021068004120639618
1.207520 -0.019714356530663623
1.208008 -0.021157452199272394
1.208496 -0.02181936798115493
1.208984 -0.014198391681642495
1.209473 -0.009553054797980376
1.209961 -0.007644829120481175
1.210449 -0.0020036369613741613
1.210938 0.0023972085073583715
1.211426 0.0026536263327723267
1.211914 0.004108648411865467
1.212402 0.010286529042769131
1.212891 0.01425206052882216
1.213379 0.008950771068519691
1.213867 0.0018605200355617212
1.214355 0.00747189616845781
1.214844 0.027305516803965132
1.215332 0.044634591237754755
1.215820 0.0469602412822069
1.216309 0.04232086760378698
1.216797 0.044193314049833066
1.217285 0.05263721267276703
1.217773 0.05521331733739095
1.218262 0.048039581431042394
1.218750 0.03826588803910117
1.219238 0.020203339360522793
1.219727 -0.013959863471955094
1.220215 -0.04767582591126911
1.220703 -0.0566265969797888
1.221191 -0.04051401641540492
1.221680 -0.024061533152216492
1.222168 -0.031861405608994475
1.222656 -0.05389544897886807
1.223145 -0.04490293547365308
1.223633 0.006523746534950394
1.224121 0.046524927299527404
1.224609 0.03301826742597837
1.225098 -0.002635736717045772
1.225586 -0.0025880310751082917
1.226074 0.032159565871103725
1.226562 0.04492082508937963
1.227051 0.009564981208464746
1.227539 -0.03347743422962661
1.228027 -0.035421439138578925
1.228516 -0.0007811798867262355
1.229004 0.02853990028909743
1.229492 0.030299045835542004
1.229980 0.018509789071742253
1.230469 0.015212136572813945
1.230957 0.020370309107303974
1.231445 0.011103488160948477
1.231934 -0.024556479187317848
1.232422 -0.0679984293766356
1.232910 -0.09039622826628248
1.233398 -0.07627535825278839
1.233887 -0.039875953454491124
1.234375 -0.015224062983298316
1.234863 -0.01381078334090047
1.235352 -0.02102029847870214
1.235840 -0.03282148165298626
1.236328 -0.05161154137111121
1.236816 -0.058099508674608495
1.237305 -0.03643518402975037
1.237793 -0.006684753076489389
1.238281 0.0038403041759671424
1.238770 -0.0038999362283889927
1.239258 -0.012194754720268333
1.239746 -0.011276421112971842
1.240234 -0.003005455442061242
1.240723 0.0021706067081553415
1.241211 -0.0017651087516867613
1.241699 -0.005462296001841464
1.242188 -0.001711439904507096
1.242676 0.003947641870326472
1.243164 0.00848564105962926
1.243652 0.019678577299210513
1.244141 0.04007273922748323
1.244629 0.05922655446538146
1.245117 0.07570289054953863
1.245605 0.09406956269546844
1.246094 0.09580485542094427
1.246582 0.06245861170664573
1.247070 0.010739732641175193
1.247559 -0.0369420564753361
1.248047 -0.07613820453221813
1.248535 -0.09663374094960799
1.249023 -0.08109362808847387
1.249512 -0.03349532384535317
1.250000 0.014997461184095284
1.250488 0.03656041133983626
1.250977 0.03540354952285237
1.251465 0.031121968158963537
1.251953 0.026041317292621914
1.252441 0.010292492248011317
1.252930 -0.012647958318674393
1.253418 -0.022493210173521835
1.253906 -0.0038999362283889927
1.254395 0.033662293592134344
1.254883 0.06349620941878592
1.255371 0.06905391670450235
1.255859 0.05678760352132779
1.256348 0.03905899433631178
1.256836 0.01716210468700844
1.257324 -0.008420045801965226
1.257812 -0.0261248021660125
1.258301 -0.023900526610677496
1.258789 -0.0017054766992649112
1.259277 0.024508773545380367
1.259766 0.02102029847870214
1.260254 -0.03614895017812549
1.260742 -0.11680130107867767
1.261230 -0.1568263346642234
1.261719 -0.13351020216728005
1.262207 -0.0811592233461379
1.262695 -0.0384924898383042
1.263184 -0.02048361000690549
1.263672 -0.01815199675721115
1.264160 -0.00685172282327057
1.264648 0.01912399921168731
1.265137 0.033674220002618716
1.265625 0.015307547856688905
1.266113 -0.021479465282350386
1.266602 -0.03523657977607119
1.267090 -0.005480185617568019
1.267578 0.03630995671966449
1.268066 0.04981661659321352
1.268555 0.03568978337447725
1.269043 0.021431759640412905
1.269531 0.022409725300131245
1.270020 0.027997248612058594
1.270508 0.025486739205098707
1.270996 0.02226064516907662
1.271484 0.026512410506754527
1.271973 0.025075278043387942
1.272461 0.005843941137341304
1.272949 -0.01443095668608771
1.273438 -0.008980587094730616
1.273926 0.026512410506754527
1.274414 0.0671278014112766
1.274902 0.08353854223776973
1.275391 0.07617994696891342
1.275879 0.05978113255290467
1.276367 0.03138434918961967
1.276855 -0.006297144735747364
1.277344 -0.03203433856101784
1.277832 -0.03434209898974344
1.278320 -0.019016661517327976
1.278809 -0.004120574822349838
1.279297 -0.0018545568303195363
1.279785 -0.001711439904507096
1.280273 0.002760964027131657
1.280762 0.005736603442981974
1.281250 0.010888812772229818
1.281738 0.02140194361420198
1.282227 0.02679864435837941
1.282715 0.016070838127688586
1.283203 1.1926410484370008e-05
1.283691 0.0013834636161869209
1.284180 0.005277436639333728
1.284668 -0.03130086431622909
1.285156 -0.097665375456506
1.285645 -0.12595482112543166
1.286133 -0.09421864282652306
1.286621 -0.05586330670878912
1.287109 -0.04242224209290412
1.287598 -0.03185544240375229
1.288086 -0.02599957485592662
1.288574 -0.04966157325691671
1.289062 -0.0813977515558253
1.289551 -0.07872623560732642
1.290039 -0.04491486188413745
1.290527 -0.01580249389179026
1.291016 -0.007418227321278145
1.291504 -0.012874560117877423
1.291992 -0.031867368814236664
1.292480 -0.05520139092690658
1.292969 -0.04880883490728426
1.293457 -0.0076686819414499155
1.293945 0.026327551144246793
1.294434 0.03351321346107972
1.294922 0.039267706519788254
1.295410 0.06174899028282572
1.295898 0.0874444416714009
1.296387 0.09835114405935727
1.296875 0.09767133866174818
1.297363 0.09909654471463039
1.297852 0.09846444495895879
1.298340 0.0789349477908029
1.298828 0.04504605239946552
1.299316 0.020990482452491216
1.299805 0.019356564216132525
1.300293 0.03461044322564177
1.300781 0.045779526644254276
1.301270 0.03430631975829033
1.301758 0.01506305644175932
1.302246 0.0035540703243422626
1.302734 -0.013184646790471044
1.303223 -0.029965106341979644
1.303711 -0.02081754950046785
1.304199 0.010137448911714506
1.304688 0.030096296857307716
1.305176 0.014341508607454935
1.305664 -0.03782461085117948
1.306152 -0.09811857905491206
1.306641 -0.1101881064650945
1.307129 -0.04391900660869255
1.307617 0.049494603510135536
1.308105 0.09879242124727897
1.308594 0.09538146784874914
1.309082 0.07017499929003312
1.309570 0.04694235166648035
1.310059 0.03763378828342956
1.310547 0.039047067925827406
1.311035 0.03286918729492374
1.311523 0.011419538038784283
1.312012 -0.011025966492800073
1.312500 -0.024216576488513303
1.312988 -0.03388889539133738
1.313477 -0.042666733507833704
1.313965 -0.043871300966755074
1.314453 -0.03819432957619495
1.314941 -0.039494308318991284
1.315430 -0.0567041186479372
1.315918 -0.07065205570940793
1.316406 -0.04672767627776169
1.316895 0.013154830764260118
1.317383 0.0603237842299435
1.317871 0.061957702466302195
1.318359 0.03626225107772701
1.318848 0.008288855286637156
1.319336 -0.01766301392735198
1.319824 -0.030120149678276455
1.320312 -0.013882341803806689
1.320801 0.017138251866039702
1.321289 0.03327468525139232
1.321777 0.026339477554731164
1.322266 0.014353435017939304
1.322754 0.01526580541999361
1.323242 0.022564768636428055
1.323730 0.018080438294304932
1.324219 0.0010912665593198556
1.324707 -0.02068635898513978
1.325195 -0.04760426744836289
1.325684 -0.0732102707583053
1.326172 -0.08326423479662921
1.326660 -0.07256028138690714
1.327148 -0.04430661494943458
1.327637 -0.010334234684706612
1.328125 0.009463606719347602
1.328613 0.008813617347949436
1.329102 0.003238020446506457
1.329590 0.0022302387605771913
1.330078 -0.0018485936250773511
1.330566 -0.005498075233294574
1.331055 0.004376992647763793
1.331543 0.017257515970883403
1.332031 0.011204862650065622
1.332520 -0.010042037627839546
1.333008 -0.025910126777293842
1.333496 -0.028295408874167843
1.333984 -0.016142396590594806
1.334473 0.0064820040982551
1.334961 0.023262463649763702
1.335449 0.036411331208781636
1.335938 0.0629475945365049
1.336426 0.0858522658717375
1.336914 0.0749574898942655
1.337402 0.03854019548024168
1.337891 0.005360921512724319
1.338379 -0.014293802965517455
1.338867 -0.02925548491815963
1.339355 -0.049029473501245105
1.339844 -0.06510031162893369
1.340332 -0.05878527727745977
1.340820 -0.03211782343440843
1.341309 -0.0022242755553350067
1.341797 0.021980374522693923
1.342285 0.033298538072361064
1.342773 0.024932161117575503
1.343262 0.004245802132435723
1.343750 -0.013709408851783324
1.344238 -0.02739496488259791
1.344727 -0.045755673823285534
1.345215 -0.06422968366357468
1.345703 -0.06778375398791694
1.346191 -0.05419360924097732
1.346680 -0.03229671959167398
1.347168 -0.012552547034799433
1.347656 -0.005820088316372564
1.348145 -0.012349798056565144
1.348633 -0.01867079561328125
1.349121 -0.013375469358220964
1.349609 -0.0012463098956166658
1.350098 0.003309578909412677
1.350586 -0.001311905153280701
1.351074 -0.0023912453021161864
1.351562 0.0020453793980694563
1.352051 0.0012105306641635558
1.352539 0.0016816238782961712
1.353027 0.02179551516018619
1.353516 0.047496929754003554
1.354004 0.04474789213735627
1.354492 0.01731714802330525
1.354980 -0.0007096214238200154
1.355469 0.0036733344291859627
1.355957 0.018056585473336193
1.356445 0.03357284551350157
1.356934 0.053036747423993426
1.357422 0.07086673109812659
1.357910 0.06873190362142435
1.358398 0.04715106384995683
1.358887 0.02945823389639392
1.359375 0.018163923167695523
1.359863 0.0006201733451872405
1.360352 -0.004710932141326153
1.360840 0.01742448571766458
1.361328 0.03538565990712581
1.361816 0.025158762916778533
1.362305 0.010089743269777027
1.362793 0.009648466081855336
1.363281 0.005909536395005339
1.363770 -0.01277318562876028
1.364258 -0.028629348367730203
1.364746 -0.03267836472717382
1.365234 -0.038820466126624376
1.365723 -0.05168906303925962
1.366211 -0.05159961496062684
1.366699 -0.02094874001579592
1.367188 0.02271384876748268
1.367676 0.037007651733000135
1.368164 0.011181009829096882
1.368652 -0.014317655786486194
1.369141 -0.010620468536331492
1.369629 -0.004687079320357414
1.370117 -0.025033535606692647
1.370605 -0.05292940972963409
1.371094 -0.07461758719546095
1.371582 -0.11194725201153909
1.372070 -0.15388051127458402
1.372559 -0.15013561838249184
1.373047 -0.10461847276889372
1.373535 -0.07485015219990616
1.374023 -0.06755118898347172
1.374512 -0.03884431894759312
1.375000 0.011276421112971842
1.375488 0.04410386597120029
1.375977 0.05100925764165053
1.376465 0.04618502460072286
1.376953 0.03249946856990827
1.377441 0.018468046635046958
1.377930 0.020996445657733398
1.378418 0.036482889671687856
1.378906 0.055618815293859536
1.379395 0.07641847517860083
1.379883 0.08503530675355815
1.380371 0.07154653649573568
1.380859 0.051378976366665996
1.381348 0.04285159287034144
1.381836 0.041617209385209145
1.382324 0.02894539824556601
1.382812 -0.010322308274222243
1.383301 -0.0683144792544714
1.383789 -0.10395059378176899
1.384277 -0.08798709334843974
1.384766 -0.04517724291479359
1.385254 -0.015486444013954456
1.385742 -0.0027430744114051017
1.386230 0.014371324633665859
1.386719 0.040722728598881396
1.387207 0.055600925678132976
1.387695 0.047043726155597494
1.388184 0.033674220002618716
1.388672 0.036626006597500295
1.389160 0.04914277440084662
1.389648 0.054229388472430425
1.390137 0.04655474332573833
1.390625 0.022040006575115775
1.391113 -0.012480988571893213
1.391602 -0.02815825515359759
1.392090 -0.01459792643286889
1.392578 0.005170098944974399
1.393066 0.01569515619743093
1.393555 0.02165239823437375
1.394043 0.02389456340543531
1.394531 0.018247408041086113
1.395020 0.014562147201415779
1.395508 0.02375144647962287
1.395996 0.038128734318530914
1.396484 0.04704968936083968
1.396973 0.047657936295542554
1.397461 0.0394466026770538
1.397949 0.0230239354400763
1.398438 0.001317868358522886
1.398926 -0.017603381874930133
1.399414 -0.02452666316110692
1.399902 -0.015206173367571761
1.400391 0.005957242036942819
1.400879 0.018575384329406287
1.401367 0.0027013319747098067
1.401855 -0.02577297305672359
1.402344 -0.02812247592214448
1.402832 -0.00022660179920303017
1.403320 0.018432267403593848
1.403809 0.004543962394544973
1.404297 -0.02381107853204472
1.404785 -0.050538164427517906
1.405273 -0.07189836560502459
1.405762 -0.06315630671998138
1.406250 -0.007513638605153105
1.406738 0.05255372779937644
1.407227 0.06258383901673162
1.407715 0.03188525842996322
1.408203 0.01313097794329138
1.408691 0.025385364715981563
1.409180 0.03898147266816337
1.409668 0.03184351599326792
1.410156 0.014711227332470406
1.410645 0.001317868358522886
1.411133 -0.010417719558097203
1.411621 -0.023685851221958838
1.412109 -0.027001393336613697
1.412598 -0.010042037627839546
1.413086 0.015581855297829416
1.413574 0.025152799711536347
1.414062 0.008539309906808925
1.414551 -0.00722144154828604
1.415039 0.007036582185778305
1.415527 0.02863531157297239
1.416016 0.027746793991886825
1.416504 0.02966098287462821
1.416992 0.05926829690207675
1.417480 0.08926321927026733
1.417969 0.09029485377716533
1.418457 0.06484389380351974
1.418945 0.028748612472573903
1.419434 0.0017412559307180212
1.419922 -0.004478367136880938
1.420410 -0.006541636150676949
1.420898 -0.03560033529584447
1.421387 -0.09020540569853255
1.421875 -0.12468465840884625
1.422363 -0.11090369109415671
1.422852 -0.080485381153771
1.423340 -0.07170157983203249
1.423828 -0.07755148417461598
1.424316 -0.07202955612035267
1.424805 -0.0477593107846597
1.425293 -0.016732753909571123
1.425781 0.0004651300088904303
1.426270 -0.010650284562542417
1.426758 -0.03876083407420253
1.427246 -0.05418168283049295
1.427734 -0.04291122492276329
1.428223 -0.020090038460921278
1.428711 -0.011604397401292018
1.429199 -0.027317443214449504
1.429688 -0.05112255854125204
1.430176 -0.059542604343217266
1.430664 -0.04499834675752804
1.431152 -0.017668977132594167
1.431641 0.007287036805950075
1.432129 0.019773988583085475
1.432617 0.016315329542618173
1.433105 0.0023972085073583715
1.433594 -0.011198899444823437
1.434082 -0.020966629631522474
1.434570 -0.022958340182412267
1.435059 -0.010173228143167616
1.435547 0.005963205242185004
1.436035 0.009559018003222562
1.436523 0.012057600999698078
1.437012 0.032404057286033315
1.437500 0.05464084963414119
1.437988 0.043125900311481946
1.438477 -0.0004114611617107653
1.438965 -0.03334624371429854
1.439453 -0.024950050733302056
1.439941 0.011079635339979738
1.440430 0.037222327121718794
1.440918 0.03803928623989814
1.441406 0.029321080175823664
1.441895 0.028098623101175738
1.442383 0.03864156996935882
1.442871 0.04913084799036225
1.443359 0.03745489212616401
1.443848 0.007603086683785881
1.444336 -0.006392556019622324
1.444824 0.0064700776877707296
1.445312 0.01870657484473436
1.445801 0.012922265759814904
1.446289 0.0033930637828032675
1.446777 0.005116430097794733
1.447266 0.01617221261680573
1.447754 0.02648855768578579
1.448242 0.027138547057183954
1.448730 0.02102029847870214
1.449219 0.021777625544459635
1.449707 0.03006648083109679
1.450195 0.02930319056009711
1.450684 0.01345299102636937
1.451172 -0.009064071968121206
1.451660 -0.033000377810251814
1.452148 -0.049411118636744945
1.452637 -0.042976820180427325
1.453125 -0.019362527421374707
1.453613 -0.004102685206623283
1.454102 -0.0032439836517486422
1.454590 -0.0023017972234834114
1.455078 0.0033393949356236023
1.455566 0.0070723614172314144
1.456055 0.0032737996779595674
1.456543 -0.00730492642167663
1.457031 -0.013530512694517775
1.457520 -0.0011568618169838908
1.458008 0.025176652532505086
1.458496 0.03976265255488961
1.458984 0.037389296868499976
1.459473 0.04115207937631871
1.459961 0.05521331733739095
1.460449 0.06075909821262301
1.460938 0.049023510296002916
1.461426 0.022660179920303017
1.461914 -0.011163120213370327
1.462402 -0.03233846202836928
1.462891 -0.028140365537871033
1.463379 -0.020441867570210194
1.463867 -0.03218341869207247
1.464355 -0.05097347841019741
1.464844 -0.05773575315483521
1.465332 -0.05678164031608561
1.465820 -0.05787887008064765
1.466309 -0.05641788479631232
1.466797 -0.04224334593563857
1.467285 -0.016118543769626067
1.467773 0.011103488160948477
1.468262 0.026673417048293523
1.468750 0.01586212594421211
1.469238 -0.02109185694160836
1.469727 -0.05297115216632939
1.470215 -0.04394285942966129
1.470703 0.010334234684706612
1.471191 0.0748382257894218
1.471680 0.10483911136285455
1.472168 0.09028292736668096
1.472656 0.057944465338311685
1.473145 0.0362264718462739
1.473633 0.033292574867118875
1.474121 0.04057961167306895
1.474609 0.04042456833677214
1.475098 0.018873544591515537
1.475586 -0.011264494702487473
1.476074 -0.024407399056263223
1.476562 -0.018796022923367132
1.477051 -0.010328271479464426
1.477539 -0.01480067541110318
1.478027 -0.04066309654645954
1.478516 -0.07558958964993712
1.479004 -0.09327645639825784
1.479492 -0.07583408106486669
1.479980 -0.031038483285572946
1.480469 0.009308563383050791
1.480957 0.022028080164631404
1.481445 0.0063567767881692145
1.481934 -0.03144398124204153
1.482422 -0.07019885211100187
1.482910 -0.07883357330168575
1.483398 -0.05232712600017341
1.483887 -0.01254658382955725
1.484375 0.019273079342741934
1.484863 0.031056372901299503
1.485352 0.0161841390272901
1.485840 -0.012749332807791539
1.486328 -0.0159456108176027
1.486816 0.02516472612202072
1.487305 0.06913143837265075
1.487793 0.06987683902792388
1.488281 0.034288430142563775
1.488770 0.0034526958352251173
1.489258 0.006619157818825354
1.489746 0.026744975511199743
1.490234 0.027746793991886825
1.490723 0.017251552765641217
1.491211 0.021384053998475424
1.491699 0.02393034263688842
1.492188 0.004454514315912198
1.492676 -0.008074179897918496
1.493164 0.014108943603009719
1.493652 0.04868957080244056
1.494141 0.05956049395894382
1.494629 0.03274395998483786
1.495117 -0.011365869191604618
1.495605 -0.03196874330335381
1.496094 -0.01828915047778141
1.496582 0.006809980386575275
1.497070 0.024031717126005565
1.497559 0.022862928898537305
1.498047 0.003971494691295213
1.498535 -0.015331400677657646
1.499023 -0.018873544591515537
1.499512 -0.008724169269316661
1.500000 0.003017381852545612
1.500488 0.012683737550127503
1.500977 0.020620763727475743
1.501465 0.021205157841209875
1.501953 0.012308055619869848
1.502441 -0.00015504333629681011
1.502930 -0.011079635339979738
1.503418 -0.020704248600866334
1.503906 -0.026202323834160907
1.504395 -0.022314314016256286
1.504883 -0.0181341071414846
1.505371 -0.024967940349028613
1.505859 -0.030072444036338974
1.506348 -0.018772170102398393
1.506836 0.0004651300088904303
1.507324 0.016261660695438506
1.507812 0.024025753920763383
1.508301 0.018545568303195363
1.508789 0.005963205242185004
1.509277 0.0035063646824047825
1.509766 0.00899847671045717
1.510254 -0.00693520769666116
1.510742 -0.05291748331914973
1.511230 -0.09211959458127394
1.511719 -0.09795757251337306
1.512207 -0.08679445230000274
1.512695 -0.0752735397721013
1.513184 -0.06009718243074047
1.513672 -0.039333301777452284
1.514160 -0.014854344258282845
1.514648 0.010793401488354858
1.515137 0.031086188927510427
1.515625 0.042082339394099576
1.516113 0.042291051577576046
1.516602 0.02948208671736266
1.517090 0.009272784151597682
1.517578 -0.006303107940989549
1.518066 -0.011431464449268652
1.518555 -0.006165954220419294
1.519043 0.00833059772333245
1.519531 0.02574315703051266
1.520020 0.037222327121718794
1.520508 0.038742944458475974
1.520996 0.029833915826651576
1.521484 0.012576399855768174
1.521973 0.001490801310546251
1.522461 0.01381078334090047
1.522949 0.02904080952944097
1.523438 0.013530512694517775
1.523926 -0.009529201977011636
1.524414 -0.0032976524989283074
1.524902 0.014413067070361154
1.525391 0.02117534181499895
1.525879 0.03020959775690923
1.526367 0.042690586328802446
1.526855 0.03561226170632884
1.527344 0.012314018825112034
1.527832 -0.0019857473456476064
1.528320 -0.009720024544761556
1.528809 -0.02403768033124775
1.529297 -0.03150361329446338
1.529785 -0.020453793980694565
1.530273 -0.0048838650933495185
1.530762 0.004615520857451193
1.531250 0.014711227332470406
1.531738 0.03204030176626003
1.532227 0.05170098944974399
1.532715 0.06023433615131073
1.533203 0.05237483164211089
1.533691 0.03679893954952366
1.534180 0.017030914171680372
1.534668 -0.013387395768705334
1.535156 -0.047204732697136494
1.535645 -0.06269117671109095
1.536133 -0.05881509330367069
1.536621 -0.05277436639333728
1.537109 -0.04340020775262246
1.537598 -0.023793188916318167
1.538086 -0.007704461172903025
1.538574 -0.009254894535871127
1.539062 -0.02363218237477917
1.539551 -0.03644711044023474
1.540039 -0.037592045846734264
1.540527 -0.0297444677480188
1.541016 -0.021527170924287863
1.541504 -0.011210825855307808
1.541992 0.0063567767881692145
1.542480 0.021187268225483318
1.542969 0.021574876566225344
1.543457 0.017305221612820883
1.543945 0.024323914182872632
1.544434 0.03913651600446018
1.544922 0.0466441914043711
1.545410 0.04006677602224104
1.545898 0.025761046646239218
1.546387 0.019791878198812028
1.546875 0.03029308263029982
1.547363 0.03531410144421959
1.547852 0.011836962405737233
1.548340 -0.01542084875629042
1.548828 -0.008652610806410442
1.549316 0.018229518425359557
1.549805 0.02680460756362159
1.550293 0.017555676232992652
1.550781 0.018986845491117052
1.551270 0.03636362556684415
1.551758 0.04983450620894008
1.552246 0.050460642759369505
1.552734 0.04257132222395874
1.553223 0.027472486550746314
1.553711 0.012838780886424313
1.554199 0.011365869191604618
1.554688 0.015510296834923196
1.555176 0.004860012272380778
1.555664 -0.01972031973590581
1.556152 -0.03735948084228905
1.556641 -0.0390888103625227
1.557129 -0.03858790112217916
1.557617 -0.0438593745562707
1.558105 -0.04024567217950659
1.558594 -0.022111565038021995
1.559082 -0.007895283740652945
1.559570 -0.005796235495403824
1.560059 -0.0021050114504913065
1.560547 0.009004439915699356
1.561035 0.018056585473336193
1.561523 0.01975609896735892
1.562012 0.00844986182817615
1.562500 -0.020960666426280288
1.562988 -0.04923222247947939
1.563477 -0.0586540867621317
1.563965 -0.06705624294837037
1.564453 -0.08721783987219787
1.564941 -0.09439753898378861
1.565430 -0.06739614564717492
1.565918 -0.02495601393854424
1.566406 0.0022123491448506364
1.566895 0.009570944413706931
1.567383 0.00893884465803532
1.567871 0.005152209329247844
1.568359 -0.0009421864282652306
1.568848 -0.005122393303036919
1.569336 -0.005993021268395929
1.569824 -0.009881031086300552
1.570312 -0.022051932985600146
1.570801 -0.035576482474875736
1.571289 -0.04181995836344343
1.571777 -0.041837847979169986
1.572266 -0.03378752090222023
1.572754 -0.018438230608836034
1.573242 -0.009827362239120887
1.573730 -0.008539309906808925
1.574219 0.0015206173367571761
1.574707 0.02129460591984265
1.575195 0.03492052989823538
1.575684 0.0348370450248448
1.576172 0.03635766236160197
1.576660 0.05443213745066472
1.577148 0.07266761908126645
1.577637 0.06988280223316606
1.578125 0.05029367301258832
1.578613 0.025462886384129968
1.579102 0.001687587083538356
1.579590 -0.020918923989584993
1.580078 -0.0423506836299979
1.580566 -0.05236290523162652
1.581055 -0.04283966645985707
1.581543 -0.01769879315880509
1.582031 0.012803001654971204
1.582520 0.03676316031807055
1.583008 0.04598823882773075
1.583496 0.04102685206623283
1.583984 0.03241598369651768
1.584473 0.032445799722728604
1.584961 0.038426894580640164
1.585449 0.037091136606390726
1.585938 0.028551826699581798
1.586426 0.02310742031346689
1.586914 0.0199230687141401
1.587402 0.010632394946815862
1.587891 -0.0025820678698661066
1.588379 -0.007728313993871765
1.588867 -0.006219623067598959
1.589355 -0.012606215881979098
1.589844 -0.024401435851021037
1.590332 -0.03703150455396888
1.590820 -0.06519572291280865
1.591309 -0.09830940162266198
1.591797 -0.09792775648716213
1.592285 -0.06310860107804389
1.592773 -0.027055062183793364
1.593262 -0.0051104668925525485
1.593750 0.006553562561161319
1.594238 0.011866778431948157
1.594727 0.013900231419533244
1.595215 0.018432267403593848
1.595703 0.0293866754334877
1.596191 0.040877771935178206
1.596680 0.04422313007604399
1.597168 0.04427083571798147
1.597656 0.05497478912770355
1.598145 0.07613820453221813
1.598633 0.08691371640484644
1.599121 0.06767045308831543
1.599609 0.026673417048293523
1.600098 -0.004919644324802628
1.600586 -0.006541636150676949
1.601074 0.009922773522995847
1.601562 0.012624105497705653
1.602051 -0.00704254539102049
1.602539 -0.0212349738674208
1.603027 -0.014627742459079815
1.603516 -0.0058558675478256736
1.604004 -0.002802706463826952
1.604492 0.011330089960151508
1.604980 0.03719251109550787
1.605469 0.04905928952745603
1.605957 0.025212431763958196
1.606445 -0.03671545467613307
1.606934 -0.10478544251567488
1.607422 -0.1090372078533528
1.607910 -0.025242247790169123
1.608398 0.06371684801274677
1.608887 0.07601894042737443
1.609375 0.03091325597548706
1.609863 -0.021980374522693923
1.610352 -0.07084287827715785
1.610840 -0.10271621029663669
1.611328 -0.0928530688260627
1.611816 -0.050538164427517906
1.612305 -0.012892449733603978
1.612793 -0.0007275110395465705
1.613281 -0.00844986182817615
1.613770 -0.016428630442219688
1.614258 -0.007465932963215625
1.614746 0.018533641892710992
1.615234 0.046835013972121024
1.615723 0.06289988889456742
1.616211 0.06267328709536439
1.616699 0.05192759124894702
1.617188 0.03696590929630484
1.617676 0.017985027010429974
1.618164 -0.0011926410484370009
1.618652 -0.011526875733143612
1.619141 -0.0182533712463283
1.619629 -0.03258891664854105
1.620117 -0.04657263294146488
1.620605 -0.047663899500784736
1.621094 -0.03542740234382111
1.621582 -0.011795219969041938
1.622070 0.014544257585689224
1.622559 0.02803899104875389
1.623047 0.03128893790574472
1.623535 0.043191495569145984
1.624023 0.06867823477424469
1.624512 0.08851185540975201
1.625000 0.07932851933678711
1.625488 0.045087794836160815
1.625977 0.007334742447887555
1.626465 -0.027114694236215212
1.626953 -0.048337741693151644
1.627441 -0.03752645058907023
1.627930 -0.010334234684706612
1.628418 -0.002504546201717702
1.628906 -0.012576399855768174
1.629395 -0.019893252687929172
1.629883 -0.029893547879073425
1.630371 -0.0550344211801254
1.630859 -0.08276332555628567
1.631348 -0.08718206064074475
1.631836 -0.06107514809045881
1.632324 -0.024783080986520878
1.632812 0.0023673924811474464
1.633301 0.021622582208162825
1.633789 0.03478933938290731
1.634277 0.03456870078894647
1.634766 0.02292852415620134
1.635254 0.015468554398227901
1.635742 0.020716175011350705
1.636230 0.024938124322817688
1.636719 0.011699808685166978
1.637207 -0.01360803436266618
1.637695 -0.031396275600104044
1.638184 -0.02699543013137151
1.638672 -0.00774620360959832
1.639160 0.0010972297645620408
1.639648 -0.005170098944974399
1.640137 -0.004102685206623283
1.640625 0.011306237139182768
1.641113 0.02438354623529448
1.641602 0.027383038472113538
1.642090 0.02751422898744161
1.642578 0.030215560962151417
1.643066 0.03147379726825245
1.643555 0.02006618563995254
1.644043 -0.004263691748162278
1.644531 -0.020161596923827498
1.645020 -0.014687374511501665
1.645508 -0.00032797628832017525
1.645996 0.012785112039244649
1.646484 0.024586295213528772
1.646973 0.029356859407276774
1.647461 0.021837257596881484
1.647949 0.00842600900720741
1.648438 -0.0017889615726555013
1.648926 -0.00689942846520805
1.649414 -0.006732458718426869
1.649902 -0.0007990695024527905
1.650391 0.00714988308537982
1.650879 0.011371832396846802
1.651367 0.011497059706932688
1.651855 0.015707082607915302
1.652344 0.02551059202606745
1.652832 0.025427107152676858
1.653320 0.00986910467581618
1.653809 -0.0040907587961389125
1.654297 -0.01348877025782248
1.654785 -0.03603564927852398
1.655273 -0.06711587500079222
1.655762 -0.08273947273531693
1.656250 -0.07787946046293616
1.656738 -0.06599479241526143
1.657227 -0.05911325356577995
1.657715 -0.054956899511977
1.658203 -0.041837847979169986
1.658691 -0.02078177026901474
1.659180 -0.003196278009811162
1.659668 0.013441064615884998
1.660156 0.03506364682404783
1.660645 0.046137318958785374
1.661133 0.03158709816785397
1.661621 0.004460477521154383
1.662109 -0.011198899444823437
1.662598 -0.006631084229309725
1.663086 0.011628250222260758
1.663574 0.034037975522392
1.664062 0.048796908496799886
1.664551 0.045546961639809064
1.665039 0.029702725311323504
1.665527 0.009720024544761556
1.666016 -0.017973100599945602
1.666504 -0.04311397390099758
1.666992 -0.04271443914977118
1.667480 -0.025033535606692647
1.667969 -0.01698320852974289
1.668457 -0.01694742929828978
1.668945 -0.006267328709536439
1.669434 0.020459757185936747
1.669922 0.05342435576473545
1.670410 0.07235156920343065
1.670898 0.06839796412786199
1.671387 0.062106782597356816
1.671875 0.06714569102700314
1.672363 0.06543425112249605
1.672852 0.04288140889655236
1.673340 0.009696171723792817
1.673828 -0.0147529697691657
1.674316 -0.013661703209845845
1.674805 0.009392048256441382
1.675293 0.021419833229928534
1.675781 -0.0012164938694057409
1.676270 -0.03967320447625683
1.676758 -0.06826081040729175
1.677246 -0.09034852262434499
1.677734 -0.11407611628299913
1.678223 -0.12598463715164257
1.678711 -0.10641936075203358
1.679199 -0.059983881531138955
1.679688 -0.01860520035561721
1.680176 -0.002552251843655182
1.680664 0.003106829931178387
1.681152 0.01658963698375868
1.681641 0.031259121879533794
1.682129 0.032326535617884906
1.682617 0.018330892914476704
1.683105 -0.0008109959129371606
1.683594 -0.014472699122783005
1.684082 -0.018694648434249988
1.684570 -0.016202028643016658
1.685059 -0.011759440737588828
1.685547 -0.012492914982377583
1.686035 -0.027066988594277735
1.686523 -0.052869777677212244
1.687012 -0.06841585374358855
1.687500 -0.055225243747875324
1.687988 -0.024478957519169443
1.688477 -0.002689405564225437
1.688965 -0.0009123704020543057
1.689453 -0.011139267392401588
1.689941 -0.01643459364746187
1.690430 -0.0036196655820062975
1.690918 0.02291659774571697
1.691406 0.045385955098270064
1.691895 0.055463771957562726
1.692383 0.06643606960318313
1.692871 0.08771278590729922
1.693359 0.10018781127395025
1.693848 0.08317478671799644
1.694336 0.04444973187524702
1.694824 0.01339335897394752
1.695312 0.020215265771007164
1.695801 0.06589938113138648
1.696289 0.1097885717138681
1.696777 0.10623450138952585
1.697266 0.055463771957562726
1.697754 0.005235694202638434
1.698242 -0.006833833207544015
1.698730 0.005259547023607173
1.699219 0.007525565015637475
1.699707 -0.004830196246169853
1.700195 -0.013506659873549034
1.700684 -0.009702134929035001
1.701172 -0.0001490801310546251
1.701660 0.009517275566527266
1.702148 0.02066250616417104
1.702637 0.026094986139801577
1.703125 0.012946118580783643
1.703613 -0.01509883567321243
1.704102 -0.03657233775032063
1.704590 -0.03014996570448738
1.705078 0.004663226499388673
1.705566 0.03558244568011792
1.706055 0.01946986511573404
1.706543 -0.039196148056882034
1.707031 -0.08068813013200529
1.707520 -0.07781386520527211
1.708008 -0.07070572455658759
1.708496 -0.08268580388813726
1.708984 -0.08377707044745712
1.709473 -0.054402321424453795
1.709961 -0.012105306641635559
1.710449 0.02480097060224743
1.710938 0.05013266647104933
1.711426 0.05849904342583489
1.711914 0.04975698454079167
1.712402 0.03667371223943777
1.712891 0.030561426866198147
1.713379 0.020358382696819603
1.713867 -0.005438443180872723
1.714355 -0.02680460756362159
1.714844 -0.023017972234834115
1.715332 -0.0061778806309036646
1.715820 0.0034288430142563773
1.716309 0.0018366672145929813
1.716797 -0.005241657407880618
1.717285 -0.009606723645160041
1.717773 -0.003989384307021768
1.718262 0.0057425666482241585
1.718750 0.002957749800123762
1.719238 -0.013405285384431889
1.719727 -0.02472941213934121
1.720215 -0.018962992670148313
1.720703 -0.0056471553643491984
1.721191 -0.004406808673974718
1.721680 -0.018855654975788984
1.722168 -0.03221323471828339
1.722656 -0.03410357078005604
1.723145 -0.027800462839066488
1.723633 -0.014114906808251905
1.724121 0.004555888805029343
1.724609 0.020596910906507004
1.725098 0.03288111370540811
1.725586 0.04428276212846584
1.726074 0.05752704097135873
1.726562 0.07095617917675937
1.727051 0.07435520616480482
1.727539 0.0702644473686659
1.728027 0.07239927484536814
1.728516 0.07024655775293935
1.729004 0.04350754544698179
1.729492 0.005784309084919454
1.729980 -0.010531020457698718
1.730469 -0.0026476631275301416
1.730957 0.0015444701577259161
1.731445 -0.010727806230690822
1.731934 -0.020501499622632043
1.732422 -0.011175046623854698
1.732910 0.008789764526980695
1.733398 0.01735292725475836
1.733887 0.0019082256774992012
1.734375 -0.027716977965675897
1.734863 -0.049112958374635696
1.735352 -0.04741940808585515
1.735840 -0.033978343469970154
1.736328 -0.03719847430075005
1.736816 -0.058469227399623964
1.737305 -0.06575030100033186
1.737793 -0.04399056507159878
1.738281 -0.012039711383971523
1.738770 0.010018184806870807
1.739258 0.013590144746939625
1.739746 -0.003303615704170492
1.740234 -0.02603535408737973
1.740723 -0.024884455475638022
1.741211 0.012033748178729339
1.741699 0.05852885945204581
1.742188 0.0806046452586147
1.742676 0.06832640566495578
1.743164 0.025307843047833158
1.743652 -0.03749067135761712
1.744141 -0.08805865181134595
1.744629 -0.09603742042538949
1.745117 -0.07273917754417268
1.745605 -0.052732623956641994
1.746094 -0.04778912681087062
1.746582 -0.050174408907744626
1.747070 -0.061116890527154105
1.747559 -0.07637076953666334
1.748047 -0.06882731490529932
1.748535 -0.029058699145167524
1.749023 0.013769040904205174
1.749512 0.03462236963612613
1.750000 0.03600583325231305
1.750488 0.028557789904823983
1.750977 0.02314319954492
1.751465 0.03235038843885365
1.751953 0.05097347841019741
1.752441 0.05798620777500698
1.752930 0.05039504750170547
1.753418 0.04371029442521608
1.753906 0.043346538905442794
1.754395 0.04329287005826313
1.754883 0.044622664827270384
1.755371 0.04719280628665212
1.755859 0.04035300987386592
1.756348 0.023984011484068087
1.756836 0.008694353243105735
1.757324 -0.005879720368794414
1.757812 -0.02718028949387925
1.758301 -0.04858223310808123
1.758789 -0.047735457963690955
1.759277 -0.020501499622632043
1.759766 0.002987565826334687
1.760254 0.001365574000460366
1.760742 -0.009881031086300552
1.761230 -0.012188791515026148
1.761719 -0.015760751455094965
1.762207 -0.03468796489379017
1.762695 -0.05179640073361894
1.763184 -0.04498642034704367
1.763672 -0.024979866759512984
1.764160 -0.01361996077315055
1.764648 -0.012194754720268333
1.765137 -0.010089743269777027
1.765625 -0.0023495028654208915
1.766113 0.00729300001119226
1.766602 0.011359905986362433
1.767090 0.011992005742034044
1.767578 0.01768090354307854
1.768066 0.020608837316991375
1.768555 0.006392556019622324
1.769043 -0.016649269036180532
1.769531 -0.028915582219355085
1.770020 -0.02721606872533236
1.770508 -0.019410233063312188
1.770996 -0.009237004920144572
1.771484 0.0015563965682102862
1.771973 0.008718206064074476
1.772461 0.010823217514565782
1.772949 0.011342016370635878
1.773438 0.010495241226245608
1.773926 0.00763886591523899
1.774414 0.009708098134277187
1.774902 0.0214735020771082
1.775391 0.03577923145311002
1.775879 0.0448969722684109
1.776367 0.05140282918763474
1.776855 0.061033405653763514
1.777344 0.07346668858371926
1.777832 0.08321652915469173
1.778320 0.08565548009874539
1.778809 0.07474877771078903
1.779297 0.03373981526028275
1.779785 -0.04505201560470771
1.780273 -0.12523923649636945
1.780762 -0.1547213232137321
1.781250 -0.1295506338864692
1.781738 -0.08214315221109843
1.782227 -0.029237595302433073
1.782715 0.02264229030457646
1.783203 0.05511790605351599
1.783691 0.05535047105796121
1.784180 0.032463689338455164
1.784668 0.005170098944974399
1.785156 -0.015164430930876466
1.785645 -0.02563581933615333
1.786133 -0.027603677066074382
1.786621 -0.03146187085776808
1.787109 -0.04700794692414439
1.787598 -0.05874353484076447
1.788086 -0.03966724127101465
1.788574 0.002576104664623922
1.789062 0.029810063005682834
1.789551 0.028498157852402135
1.790039 0.019797841404054214
1.790527 0.017018987761196
1.791016 0.013166757174744489
1.791504 0.006499893713981655
1.791992 0.011842925610979419
1.792480 0.03771130995157797
1.792969 0.06507049560272277
1.793457 0.06570855856363655
1.793945 0.02929126414961274
1.794434 -0.027293590393480765
1.794922 -0.06219026747074741
1.795410 -0.04427083571798147
1.795898 0.008342524133816821
1.796387 0.05052027481179135
1.796875 0.06331731326152037
1.797363 0.06446821187326209
1.797852 0.06767045308831543
1.798340 0.060365526666638795
1.798828 0.034735670535727646
1.799316 0.010471388405276867
1.799805 0.006965023722872085
1.800293 0.013238315637650709
1.800781 0.011628250222260758
1.801270 0.006845759618028384
1.801758 0.0049315707352869985
1.802246 0.001389426821429106
1.802734 -0.004126538027592023
1.803223 -0.008044363871707571
1.803711 -0.010686063793995526
1.804199 -0.021968448112209556
1.804688 -0.05274455036712636
1.805176 -0.09347920537649212
1.805664 -0.11893612855537991
1.806152 -0.11343209011684315
1.806641 -0.07866660355490457
1.807129 -0.03318523717275955
1.807617 -0.0021050114504913065
1.808105 0.013172720379986675
1.808594 0.02803899104875389
1.809082 0.03504575720832127
1.809570 0.019845547045991695
1.810059 0.0020573058085538265
1.810547 0.008014547845496645
1.811035 0.02648855768578579
1.811523 0.03150957649970556
1.812012 0.021753772723490893
1.812500 0.012946118580783643
1.812988 0.005504038438536759
1.813477 -0.017257515970883403
1.813965 -0.05272069754615762
1.814453 -0.06815347271293241
1.814941 -0.04265480709734933
1.815430 -0.0035004014771625974
1.815918 0.00816362797655127
1.816406 -0.0008169591181793456
1.816895 0.005826051521614749
1.817383 0.03438980463168092
1.817871 0.05898802625569406
1.818359 0.057193101477796375
1.818848 0.03852826906975731
1.819336 0.032630659085236345
1.819824 0.044849266626473414
1.820312 0.05299500498729813
1.820801 0.048498748234690636
1.821289 0.04614328216402756
1.821777 0.046685933841066396
1.822266 0.02744267052453539
1.822754 -0.005187988560700954
1.823242 -0.00831867131284808
1.823730 0.02424042930948204
1.824219 0.04294104094897421
1.824707 0.011616323811776387
1.825195 -0.04800976540483147
1.825684 -0.08671693063185433
1.826172 -0.0777363435371237
1.826660 -0.04091355116663131
1.827148 -0.020310677054882122
1.827637 -0.02656011614869201
1.828125 -0.024777117781278692
1.828613 0.006631084229309725
1.829102 0.039047067925827406
1.829590 0.0345567743784621
1.830078 -0.003100866725936202
1.830566 -0.034670075278063615
1.831055 -0.03245176292797079
1.831543 -0.010680100588753343
1.832031 -0.003232057241264272
1.832520 -0.0211157097625771
1.833008 -0.04511761086237174
1.833496 -0.05328123883892301
1.833984 -0.03902321510485866
1.834473 -0.011491096501690503
1.834961 0.0060824693470287045
1.835449 -0.0009779656597183406
1.835938 -0.018718501255218727
1.836426 -0.02656011614869201
1.836914 -0.020847365526678773
1.837402 -0.011127340981917217
1.837891 -0.004198096490498243
1.838379 0.004371029442521608
1.838867 0.012272276388416738
1.839355 0.004084795590896728
1.839844 -0.015808457097032446
1.840332 -0.02220101311665477
1.840820 -0.011455317270237393
1.841309 -0.0022958340182412267
1.841797 -0.0026297735118035867
1.842285 -0.007776019635809245
1.842773 -0.018330892914476704
1.843262 -0.03351321346107972
1.843750 -0.03830763047579647
1.844238 -0.02577893626196577
1.844727 -0.01441903027560334
1.845215 -0.016667158651907085
1.845703 -0.018271260862054852
1.846191 -0.009231041714902386
1.846680 -0.0011389722012573357
1.847168 -0.0019380417037101264
1.847656 -0.0035063646824047825
1.848145 0.004037089948959248
1.848633 0.02105607771015525
1.849121 0.03802139662417159
1.849609 0.046161171779754116
1.850098 0.045469439971660655
1.850586 0.040263561795233146
1.851074 0.03468796489379017
1.851562 0.029368785817761145
1.852051 0.02201019054890485
1.852539 0.014633705664322
1.853027 0.01258236306101036
1.853516 0.015999279664782366
1.854004 0.018646942792312507
1.854492 0.01592175799663396
1.854980 0.01345299102636937
1.855469 0.01870657484473436
1.855957 0.022994119413865376
1.856445 0.01474104335868133
1.856934 0.004782490604232373
1.857422 0.010453498789550313
1.857910 0.028915582219355085
1.858398 0.04363873596230986
1.858887 0.03894569343671026
1.859375 0.0141566492449472
1.859863 -0.0071856623168329295
1.860352 -0.0077342771991139505
1.860840 -0.0020334529875850865
1.861328 -0.004549925599787158
1.861816 -0.006553562561161319
1.862305 -0.0008408119391480856
1.862793 0.005659081774833569
1.863281 0.005492112028052389
1.863770 -0.002844448900522247
1.864258 -0.016732753909571123
1.864746 -0.02690598205273874
1.865234 -0.018998771901601423
1.865723 0.006690716281731575
1.866211 0.02671515948498882
1.866699 0.02464592726595062
1.867188 0.013429138205400629
1.867676 0.009553054797980376
1.868164 0.012415393314229178
1.868652 0.022314314016256286
1.869141 0.03892780382098371
1.869629 0.04326901723729439
1.870117 0.02694176128419185
1.870605 0.013166757174744489
1.871094 0.015939647612360514
1.871582 0.02187900003357678
1.872070 0.018044659062851822
1.872559 0.0007752166814840505
1.873047 -0.0314559076525259
1.873535 -0.06713376461651878
1.874023 -0.077229471091538
1.874512 -0.053179864349805865
1.875000 -0.028879802987901975
1.875488 -0.03183755278802573
1.875977 -0.04504605239946552
1.876465 -0.03976861576013179
1.876953 -0.016422667236977502
1.877441 -0.0001490801310546251
1.877930 -0.0006678789871247204
1.878418 0.001490801310546251
1.878906 0.01402545872961913
1.879395 0.017018987761196
1.879883 -0.0038641569969358825
1.880371 -0.04231490439854479
1.880859 -0.07677626749313193
1.881348 -0.08250690773087171
1.881836 -0.054396358219211606
1.882324 -0.012797038449729018
1.882812 0.012480988571893213
1.883301 0.007728313993871765
1.883789 -0.007137956674895449
1.884277 -0.002552251843655182
1.884766 0.016786422756750786
1.885254 0.020775807063772554
1.885742 0.00833059772333245
1.886230 0.005122393303036919
1.886719 0.011008076877073518
1.887207 0.008873249400371286
1.887695 0.004066905975170173
1.888184 0.009803509418152147
1.888672 0.02672708589547319
1.889160 0.04443184225952047
1.889648 0.04188555362110747
1.890137 0.011169083418612512
1.890625 -0.01847997304553133
1.891113 -0.005635228953864829
1.891602 0.05177851111789239
1.892090 0.10582304022781508
1.892578 0.11866778431948158
1.893066 0.10504186034108885
1.893555 0.08850589220450983
1.894043 0.06809384066051057
1.894531 0.042285088372333864
1.895020 0.015402959140563865
1.895508 -0.011717698300893533
1.895996 -0.03554666644866481
1.896484 -0.04673960268824606
1.896973 -0.045171279709551405
1.897461 -0.05216611945863441
1.897949 -0.08118307616710664
1.898438 -0.11199495765347656
1.898926 -0.12459521033021348
1.899414 -0.12120214654741021
1.899902 -0.10305014979019905
1.900391 -0.07642443838384301
1.900879 -0.05899995266617843
1.901367 -0.047055652566081865
1.901855 -0.025003719580481722
1.902344 -0.0007871430919684205
1.902832 0.01267777434488532
1.903320 0.02212945465374855
1.903809 0.03724021673744535
1.904297 0.04875516606010459
1.904785 0.03900532548913211
1.905273 0.012886486528361794
1.905762 -0.0041563540538029475
1.906250 -0.0004293507774373203
1.906738 0.011741551121862273
1.907227 0.015110762083696801
1.907715 0.010214970579862911
1.908203 0.015343327088142015
1.908691 0.030835734307338655
1.909180 0.022230829142865696
1.909668 -0.030692617381526215
1.910156 -0.08202985131149691
1.910645 -0.07021674172672843
1.911133 -0.012302092414627663
1.911621 0.024568405597802215
1.912109 0.019630871657273032
1.912598 0.005199914971185324
1.913086 0.006869612438997125
1.913574 0.01481260182158755
1.914062 0.013840599367111394
1.914551 0.01471719053771259
1.915039 0.0332448692251814
1.915527 0.05623302543380459
1.916016 0.056751824289874686
1.916504 0.036936093270093916
1.916992 0.024335840593357
1.917480 0.024842713038942726
1.917969 0.014281876555033084
1.918457 -0.013995642703408204
1.918945 -0.02991143749479998
1.919434 -0.021980374522693923
1.919922 -0.02441932546674759
1.920410 -0.04722262231286305
1.920898 -0.04772949475844877
1.921387 -0.008825543758433805
1.921875 0.025820678698661066
1.922363 0.018784096512882764
1.922852 -0.00771042437814521
1.923340 -0.011753477532346642
1.923828 0.0020990482452491214
1.924316 0.0006857686028512754
1.924805 -0.01555203927161849
1.925293 -0.019601055631062108
1.925781 -0.0018247408041086113
1.926270 0.025397291126465934
1.926758 0.04331075967398969
1.927246 0.03976861576013179
1.927734 0.020942776810553735
1.928223 0.004669189704630858
1.928711 0.001413279642397846
1.929199 0.01506305644175932
1.929688 0.04498045714180149
1.930176 0.0749992323309608
1.930664 0.08694353243105736
1.931152 0.08015144166020864
1.931641 0.06128386027393529
1.932129 0.0396076092185928
1.932617 0.027782573223339935
1.933105 0.020489573212147675
1.933594 0.0011449354064995208
1.934082 -0.01777035162171131
1.934570 -0.012188791515026148
1.935059 0.0034526958352251173
1.935547 0.00045916680364824534
1.936035 -0.019440049089523112
1.936523 -0.03976265255488961
1.937012 -0.04953038274158864
1.937500 -0.043901116992966
1.937988 -0.03150361329446338
1.938477 -0.026273882297067126
1.938965 -0.025105094069598866
1.939453 -0.016285513516407245
1.939941 -0.0036017759662797426
1.940430 0.005211841381669693
1.940918 0.01470526412722822
1.941406 0.02453858957159129
1.941895 0.01976802537784329
1.942383 -0.004645336883662118
1.942871 -0.020960666426280288
1.943359 0.0007811798867262355
1.943848 0.042833703254614885
1.944336 0.06307282184659078
1.944824 0.04851663785041719
1.945312 0.009427827487894492
1.945801 -0.034431547068376214
1.946289 -0.05465277604462556
1.946777 -0.04684694038260539
1.947266 -0.03941082344560069
1.947754 -0.04624465665314471
1.948242 -0.04948864030489335
1.948730 -0.03953605075568658
1.949219 -0.026709196279746633
1.949707 -0.014460772712298635
1.950195 -0.002110974655733491
1.950684 0.004365066237279423
1.951172 0.005599449722411718
1.951660 0.009153520046753981
1.952148 0.014627742459079815
